File Path	chrom://5-para-12-0017/ChromeleonLocal/Instrument Data/UHPLC_2/analysis 2017/Lise/20170504 total IgG Canada_plate 1 wave2.seq/848.smp/Emission_1.channel/Emission_1.chm
Channel	Emission_1

Injection Information:
Data Vault	ChromeleonLocal
Injection	Plate1_A5
Injection Number	11
Position	GA5
Comment	
Processing Method	22-04-2013 Integrate IgG 75-63%
Instrument Method	2015_deepwell_IgGNglycome 600 ulmin 75%-63% 20160815_2AA_G1
Type	Unknown
Status	Finished
Injection Date	5-5-2017
Injection Time	17:21:15
Injection Volume (µl)	82,000
Dilution Factor	1,0000
Weight	1,0000

Raw Data Information:
Time Min. (min)	0,016600
Time Max. (min)	43,116600
Data Points	2587
Detector	FLD
Exporting Data System	Chromeleon 7.1.2.1478
Operator	
Signal Quantity	
Signal Unit	counts
Signal Min.	-7.633,000000
Signal Max.	47.579.434,000000
Channel	Emission_1
Driver Name	FLD3000.dll
Channel Type	Evaluation
Min. Step (s)	1,000
Max. Step (s)	1,000
Average Step (s)	1,000

Signal Parameter Information:
Signal Info	250 nm /425 nm

Raw Data:
Time (min)	Step (s)	Value (counts)
0,016600	0,000	0,000000
0,033267	1,000	0,000000
0,049933	1,000	0,000000
0,066600	1,000	0,000000
0,083267	1,000	51,000000
0,099933	1,000	41,000000
0,116600	1,000	-266,000000
0,133267	1,000	-840,000000
0,149933	1,000	-1.569,000000
0,166600	1,000	-2.284,000000
0,183267	1,000	-2.887,000000
0,199933	1,000	-3.350,000000
0,216600	1,000	-3.606,000000
0,233267	1,000	-3.630,000000
0,249933	1,000	-3.476,000000
0,266600	1,000	-3.284,000000
0,283267	1,000	-3.255,000000
0,299933	1,000	-3.628,000000
0,316600	1,000	-4.547,000000
0,333267	1,000	-5.802,000000
0,349933	1,000	-6.956,000000
0,366600	1,000	-7.633,000000
0,383267	1,000	-7.450,000000
0,399933	1,000	7.753,000000
0,416600	1,000	135.605,000000
0,433267	1,000	548.842,000000
0,449933	1,000	1.391.265,000000
0,466600	1,000	2.742.618,000000
0,483267	1,000	4.680.356,000000
0,499933	1,000	7.405.821,000000
0,516600	1,000	13.918.662,000000
0,533267	1,000	9.279.108,000000
0,549933	1,000	13.918.662,000000
0,566600	1,000	9.279.108,000000
0,583267	1,000	13.918.662,000000
0,599933	1,000	9.279.108,000000
0,616600	1,000	13.918.662,000000
0,633267	1,000	9.279.108,000000
0,649933	1,000	13.918.662,000000
0,666600	1,000	9.279.108,000000
0,683267	1,000	9.279.108,000000
0,699933	1,000	9.279.108,000000
0,716600	1,000	9.279.108,000000
0,733267	1,000	9.279.108,000000
0,749933	1,000	9.279.108,000000
0,766600	1,000	9.279.108,000000
0,783267	1,000	9.279.108,000000
0,799933	1,000	9.279.108,000000
0,816600	1,000	9.279.108,000000
0,833267	1,000	9.279.108,000000
0,849933	1,000	9.279.108,000000
0,866600	1,000	9.279.108,000000
0,883267	1,000	9.279.108,000000
0,899933	1,000	9.279.108,000000
0,916600	1,000	9.279.108,000000
0,933267	1,000	9.279.108,000000
0,949933	1,000	9.279.108,000000
0,966600	1,000	9.279.108,000000
0,983267	1,000	9.279.108,000000
0,999933	1,000	9.279.108,000000
1,016600	1,000	9.279.108,000000
1,033267	1,000	9.279.108,000000
1,049933	1,000	9.279.108,000000
1,066600	1,000	9.279.108,000000
1,083267	1,000	9.279.108,000000
1,099933	1,000	9.279.108,000000
1,116600	1,000	9.279.108,000000
1,133267	1,000	9.279.108,000000
1,149933	1,000	9.279.108,000000
1,166600	1,000	9.279.108,000000
1,183267	1,000	9.279.108,000000
1,199933	1,000	9.279.108,000000
1,216600	1,000	9.279.108,000000
1,233267	1,000	9.279.108,000000
1,249933	1,000	9.279.108,000000
1,266600	1,000	9.279.108,000000
1,283267	1,000	9.279.108,000000
1,299933	1,000	13.918.662,000000
1,316600	1,000	9.279.108,000000
1,333267	1,000	13.918.662,000000
1,349933	1,000	9.279.108,000000
1,366600	1,000	13.918.662,000000
1,383267	1,000	9.279.108,000000
1,399933	1,000	13.918.662,000000
1,416600	1,000	9.279.108,000000
1,433267	1,000	13.918.662,000000
1,449933	1,000	9.279.108,000000
1,466600	1,000	47.579.434,000000
1,483267	1,000	39.840.214,000000
1,499933	1,000	32.648.103,000000
1,516600	1,000	26.269.916,000000
1,533267	1,000	20.850.677,000000
1,549933	1,000	16.426.667,000000
1,566600	1,000	12.949.150,000000
1,583267	1,000	10.311.785,000000
1,599933	1,000	8.377.941,000000
1,616600	1,000	7.002.675,000000
1,633267	1,000	6.048.593,000000
1,649933	1,000	5.396.508,000000
1,666600	1,000	4.950.130,000000
1,683267	1,000	4.636.315,000000
1,699933	1,000	4.402.941,000000
1,716600	1,000	4.215.157,000000
1,733267	1,000	4.051.446,000000
1,749933	1,000	3.899.821,000000
1,766600	1,000	3.754.788,000000
1,783267	1,000	3.614.471,000000
1,799933	1,000	3.478.460,000000
1,816600	1,000	3.347.078,000000
1,833267	1,000	3.221.002,000000
1,849933	1,000	3.100.970,000000
1,866600	1,000	2.987.711,000000
1,883267	1,000	2.881.513,000000
1,899933	1,000	2.781.879,000000
1,916600	1,000	2.688.096,000000
1,933267	1,000	2.599.599,000000
1,949933	1,000	2.515.748,000000
1,966600	1,000	2.436.057,000000
1,983267	1,000	2.360.090,000000
1,999933	1,000	2.287.497,000000
2,016600	1,000	2.218.015,000000
2,033267	1,000	2.151.686,000000
2,049933	1,000	2.088.466,000000
2,066600	1,000	2.028.315,000000
2,083267	1,000	1.971.428,000000
2,099933	1,000	1.917.914,000000
2,116600	1,000	1.867.601,000000
2,133267	1,000	1.820.091,000000
2,149933	1,000	1.774.797,000000
2,166600	1,000	1.731.556,000000
2,183267	1,000	1.690.427,000000
2,199933	1,000	1.651.583,000000
2,216600	1,000	1.615.101,000000
2,233267	1,000	1.580.997,000000
2,249933	1,000	1.549.410,000000
2,266600	1,000	1.520.339,000000
2,283267	1,000	1.493.588,000000
2,299933	1,000	1.468.922,000000
2,316600	1,000	1.446.194,000000
2,333267	1,000	1.425.514,000000
2,349933	1,000	1.406.926,000000
2,366600	1,000	1.390.581,000000
2,383267	1,000	1.376.651,000000
2,399933	1,000	1.364.789,000000
2,416600	1,000	1.354.520,000000
2,433267	1,000	1.345.250,000000
2,449933	1,000	1.336.109,000000
2,466600	1,000	1.326.276,000000
2,483267	1,000	1.314.831,000000
2,499933	1,000	1.300.722,000000
2,516600	1,000	1.283.021,000000
2,533267	1,000	1.261.310,000000
2,549933	1,000	1.235.661,000000
2,566600	1,000	1.206.653,000000
2,583267	1,000	1.175.237,000000
2,599933	1,000	1.142.423,000000
2,616600	1,000	1.109.077,000000
2,633267	1,000	1.075.782,000000
2,649933	1,000	1.043.098,000000
2,666600	1,000	1.011.670,000000
2,683267	1,000	982.013,000000
2,699933	1,000	954.500,000000
2,716600	1,000	929.217,000000
2,733267	1,000	906.006,000000
2,749933	1,000	884.689,000000
2,766600	1,000	865.019,000000
2,783267	1,000	846.755,000000
2,799933	1,000	829.826,000000
2,816600	1,000	814.225,000000
2,833267	1,000	799.951,000000
2,849933	1,000	786.813,000000
2,866600	1,000	774.517,000000
2,883267	1,000	762.856,000000
2,899933	1,000	751.724,000000
2,916600	1,000	740.978,000000
2,933267	1,000	730.420,000000
2,949933	1,000	720.174,000000
2,966600	1,000	710.381,000000
2,983267	1,000	700.974,000000
2,999933	1,000	691.771,000000
3,016600	1,000	682.665,000000
3,033267	1,000	673.693,000000
3,049933	1,000	664.982,000000
3,066600	1,000	656.538,000000
3,083267	1,000	648.256,000000
3,099933	1,000	639.902,000000
3,116600	1,000	631.353,000000
3,133267	1,000	622.430,000000
3,149933	1,000	612.985,000000
3,166600	1,000	603.037,000000
3,183267	1,000	592.742,000000
3,199933	1,000	582.354,000000
3,216600	1,000	571.865,000000
3,233267	1,000	561.098,000000
3,249933	1,000	550.015,000000
3,266600	1,000	538.784,000000
3,283267	1,000	527.811,000000
3,299933	1,000	517.443,000000
3,316600	1,000	507.917,000000
3,333267	1,000	499.498,000000
3,349933	1,000	492.256,000000
3,366600	1,000	486.214,000000
3,383267	1,000	481.416,000000
3,399933	1,000	477.830,000000
3,416600	1,000	475.363,000000
3,433267	1,000	473.698,000000
3,449933	1,000	472.380,000000
3,466600	1,000	470.925,000000
3,483267	1,000	469.026,000000
3,499933	1,000	466.398,000000
3,516600	1,000	462.983,000000
3,533267	1,000	458.789,000000
3,549933	1,000	453.848,000000
3,566600	1,000	448.383,000000
3,583267	1,000	442.716,000000
3,599933	1,000	437.178,000000
3,616600	1,000	431.980,000000
3,633267	1,000	427.078,000000
3,649933	1,000	422.413,000000
3,666600	1,000	417.952,000000
3,683267	1,000	413.787,000000
3,699933	1,000	410.420,000000
3,716600	1,000	408.460,000000
3,733267	1,000	408.126,000000
3,749933	1,000	409.060,000000
3,766600	1,000	410.739,000000
3,783267	1,000	412.666,000000
3,799933	1,000	414.348,000000
3,816600	1,000	415.314,000000
3,833267	1,000	415.221,000000
3,849933	1,000	414.002,000000
3,866600	1,000	411.729,000000
3,883267	1,000	408.576,000000
3,899933	1,000	404.731,000000
3,916600	1,000	400.399,000000
3,933267	1,000	395.809,000000
3,949933	1,000	391.197,000000
3,966600	1,000	386.550,000000
3,983267	1,000	381.874,000000
3,999933	1,000	377.367,000000
4,016600	1,000	373.194,000000
4,033267	1,000	369.361,000000
4,049933	1,000	365.978,000000
4,066600	1,000	363.175,000000
4,083267	1,000	360.912,000000
4,099933	1,000	359.193,000000
4,116600	1,000	358.046,000000
4,133267	1,000	357.482,000000
4,149933	1,000	357.553,000000
4,166600	1,000	358.383,000000
4,183267	1,000	359.987,000000
4,199933	1,000	362.320,000000
4,216600	1,000	365.346,000000
4,233267	1,000	369.081,000000
4,249933	1,000	373.326,000000
4,266600	1,000	377.758,000000
4,283267	1,000	381.913,000000
4,299933	1,000	385.372,000000
4,316600	1,000	387.779,000000
4,333267	1,000	389.145,000000
4,349933	1,000	389.844,000000
4,366600	1,000	390.408,000000
4,383267	1,000	391.313,000000
4,399933	1,000	393.207,000000
4,416600	1,000	397.348,000000
4,433267	1,000	404.321,000000
4,449933	1,000	413.355,000000
4,466600	1,000	422.724,000000
4,483267	1,000	430.331,000000
4,499933	1,000	434.287,000000
4,516600	1,000	433.495,000000
4,533267	1,000	427.954,000000
4,549933	1,000	418.583,000000
4,566600	1,000	406.582,000000
4,583267	1,000	392.886,000000
4,599933	1,000	378.315,000000
4,616600	1,000	363.563,000000
4,633267	1,000	349.354,000000
4,649933	1,000	336.385,000000
4,666600	1,000	325.270,000000
4,683267	1,000	316.233,000000
4,699933	1,000	309.190,000000
4,716600	1,000	303.913,000000
4,733267	1,000	300.130,000000
4,749933	1,000	297.525,000000
4,766600	1,000	295.624,000000
4,783267	1,000	293.840,000000
4,799933	1,000	291.799,000000
4,816600	1,000	289.410,000000
4,833267	1,000	286.857,000000
4,849933	1,000	284.402,000000
4,866600	1,000	282.295,000000
4,883267	1,000	280.679,000000
4,899933	1,000	279.729,000000
4,916600	1,000	279.657,000000
4,933267	1,000	280.655,000000
4,949933	1,000	282.721,000000
4,966600	1,000	285.689,000000
4,983267	1,000	289.340,000000
4,999933	1,000	293.254,000000
5,016600	1,000	296.652,000000
5,033267	1,000	298.882,000000
5,049933	1,000	299.609,000000
5,066600	1,000	298.766,000000
5,083267	1,000	296.788,000000
5,099933	1,000	294.277,000000
5,116600	1,000	291.677,000000
5,133267	1,000	289.310,000000
5,149933	1,000	287.526,000000
5,166600	1,000	286.680,000000
5,183267	1,000	287.048,000000
5,199933	1,000	288.706,000000
5,216600	1,000	291.720,000000
5,233267	1,000	296.027,000000
5,249933	1,000	301.392,000000
5,266600	1,000	307.573,000000
5,283267	1,000	314.159,000000
5,299933	1,000	320.441,000000
5,316600	1,000	325.392,000000
5,333267	1,000	327.919,000000
5,349933	1,000	327.338,000000
5,366600	1,000	323.410,000000
5,383267	1,000	316.440,000000
5,399933	1,000	307.203,000000
5,416600	1,000	296.821,000000
5,433267	1,000	286.412,000000
5,449933	1,000	276.783,000000
5,466600	1,000	268.414,000000
5,483267	1,000	261.540,000000
5,499933	1,000	256.305,000000
5,516600	1,000	252.712,000000
5,533267	1,000	250.612,000000
5,549933	1,000	249.670,000000
5,566600	1,000	249.367,000000
5,583267	1,000	249.231,000000
5,599933	1,000	249.031,000000
5,616600	1,000	248.598,000000
5,633267	1,000	247.878,000000
5,649933	1,000	246.993,000000
5,666600	1,000	246.109,000000
5,683267	1,000	245.085,000000
5,699933	1,000	243.883,000000
5,716600	1,000	242.501,000000
5,733267	1,000	241.022,000000
5,749933	1,000	239.515,000000
5,766600	1,000	238.047,000000
5,783267	1,000	236.655,000000
5,799933	1,000	235.191,000000
5,816600	1,000	233.610,000000
5,833267	1,000	232.087,000000
5,849933	1,000	230.856,000000
5,866600	1,000	230.032,000000
5,883267	1,000	229.554,000000
5,899933	1,000	229.237,000000
5,916600	1,000	229.006,000000
5,933267	1,000	228.983,000000
5,949933	1,000	229.287,000000
5,966600	1,000	229.835,000000
5,983267	1,000	230.593,000000
5,999933	1,000	231.503,000000
6,016600	1,000	232.473,000000
6,033267	1,000	233.245,000000
6,049933	1,000	233.574,000000
6,066600	1,000	233.376,000000
6,083267	1,000	232.709,000000
6,099933	1,000	231.770,000000
6,116600	1,000	230.595,000000
6,133267	1,000	229.263,000000
6,149933	1,000	227.940,000000
6,166600	1,000	226.739,000000
6,183267	1,000	225.801,000000
6,199933	1,000	225.230,000000
6,216600	1,000	224.970,000000
6,233267	1,000	224.885,000000
6,249933	1,000	224.869,000000
6,266600	1,000	224.782,000000
6,283267	1,000	224.570,000000
6,299933	1,000	224.356,000000
6,316600	1,000	224.315,000000
6,333267	1,000	224.535,000000
6,349933	1,000	225.030,000000
6,366600	1,000	225.795,000000
6,383267	1,000	226.854,000000
6,399933	1,000	228.278,000000
6,416600	1,000	230.041,000000
6,433267	1,000	231.951,000000
6,449933	1,000	233.618,000000
6,466600	1,000	234.676,000000
6,483267	1,000	235.047,000000
6,499933	1,000	234.772,000000
6,516600	1,000	233.992,000000
6,533267	1,000	233.096,000000
6,549933	1,000	232.460,000000
6,566600	1,000	232.421,000000
6,583267	1,000	233.172,000000
6,599933	1,000	234.625,000000
6,616600	1,000	236.423,000000
6,633267	1,000	238.066,000000
6,649933	1,000	238.960,000000
6,666600	1,000	238.728,000000
6,683267	1,000	237.258,000000
6,699933	1,000	234.686,000000
6,716600	1,000	231.436,000000
6,733267	1,000	227.944,000000
6,749933	1,000	224.459,000000
6,766600	1,000	221.215,000000
6,783267	1,000	218.569,000000
6,799933	1,000	216.773,000000
6,816600	1,000	215.785,000000
6,833267	1,000	215.450,000000
6,849933	1,000	215.609,000000
6,866600	1,000	215.891,000000
6,883267	1,000	215.908,000000
6,899933	1,000	215.459,000000
6,916600	1,000	214.508,000000
6,933267	1,000	213.175,000000
6,949933	1,000	211.632,000000
6,966600	1,000	209.945,000000
6,983267	1,000	208.257,000000
6,999933	1,000	206.757,000000
7,016600	1,000	205.562,000000
7,033267	1,000	204.722,000000
7,049933	1,000	204.138,000000
7,066600	1,000	203.803,000000
7,083267	1,000	203.829,000000
7,099933	1,000	204.333,000000
7,116600	1,000	205.228,000000
7,133267	1,000	206.336,000000
7,149933	1,000	207.501,000000
7,166600	1,000	208.627,000000
7,183267	1,000	209.577,000000
7,199933	1,000	210.115,000000
7,216600	1,000	210.103,000000
7,233267	1,000	209.525,000000
7,249933	1,000	208.514,000000
7,266600	1,000	207.276,000000
7,283267	1,000	206.058,000000
7,299933	1,000	204.947,000000
7,316600	1,000	203.893,000000
7,333267	1,000	202.873,000000
7,349933	1,000	201.888,000000
7,366600	1,000	201.028,000000
7,383267	1,000	200.388,000000
7,399933	1,000	200.008,000000
7,416600	1,000	199.907,000000
7,433267	1,000	200.030,000000
7,449933	1,000	200.211,000000
7,466600	1,000	200.446,000000
7,483267	1,000	200.703,000000
7,499933	1,000	200.844,000000
7,516600	1,000	200.857,000000
7,533267	1,000	200.810,000000
7,549933	1,000	200.683,000000
7,566600	1,000	200.362,000000
7,583267	1,000	199.834,000000
7,599933	1,000	199.222,000000
7,616600	1,000	198.674,000000
7,633267	1,000	198.086,000000
7,649933	1,000	197.376,000000
7,666600	1,000	196.657,000000
7,683267	1,000	196.073,000000
7,699933	1,000	195.704,000000
7,716600	1,000	195.525,000000
7,733267	1,000	195.491,000000
7,749933	1,000	195.626,000000
7,766600	1,000	196.081,000000
7,783267	1,000	196.889,000000
7,799933	1,000	197.930,000000
7,816600	1,000	199.186,000000
7,833267	1,000	200.618,000000
7,849933	1,000	202.217,000000
7,866600	1,000	204.008,000000
7,883267	1,000	205.858,000000
7,899933	1,000	207.296,000000
7,916600	1,000	208.004,000000
7,933267	1,000	208.032,000000
7,949933	1,000	207.636,000000
7,966600	1,000	207.070,000000
7,983267	1,000	206.546,000000
7,999933	1,000	206.129,000000
8,016600	1,000	205.706,000000
8,033267	1,000	205.166,000000
8,049933	1,000	204.451,000000
8,066600	1,000	203.528,000000
8,083267	1,000	202.430,000000
8,099933	1,000	201.244,000000
8,116600	1,000	200.265,000000
8,133267	1,000	199.889,000000
8,149933	1,000	200.297,000000
8,166600	1,000	201.496,000000
8,183267	1,000	203.334,000000
8,199933	1,000	205.448,000000
8,216600	1,000	207.428,000000
8,233267	1,000	209.114,000000
8,249933	1,000	210.416,000000
8,266600	1,000	211.292,000000
8,283267	1,000	211.813,000000
8,299933	1,000	211.994,000000
8,316600	1,000	211.874,000000
8,333267	1,000	211.511,000000
8,349933	1,000	210.954,000000
8,366600	1,000	210.257,000000
8,383267	1,000	209.408,000000
8,399933	1,000	208.375,000000
8,416600	1,000	207.036,000000
8,433267	1,000	205.370,000000
8,449933	1,000	203.686,000000
8,466600	1,000	202.386,000000
8,483267	1,000	201.601,000000
8,499933	1,000	201.402,000000
8,516600	1,000	201.769,000000
8,533267	1,000	202.565,000000
8,549933	1,000	203.605,000000
8,566600	1,000	204.718,000000
8,583267	1,000	205.747,000000
8,599933	1,000	206.517,000000
8,616600	1,000	206.921,000000
8,633267	1,000	207.017,000000
8,649933	1,000	206.849,000000
8,666600	1,000	206.433,000000
8,683267	1,000	205.693,000000
8,699933	1,000	204.588,000000
8,716600	1,000	203.261,000000
8,733267	1,000	201.877,000000
8,749933	1,000	200.641,000000
8,766600	1,000	199.876,000000
8,783267	1,000	199.797,000000
8,799933	1,000	200.332,000000
8,816600	1,000	201.296,000000
8,833267	1,000	202.549,000000
8,849933	1,000	203.789,000000
8,866600	1,000	204.762,000000
8,883267	1,000	205.420,000000
8,899933	1,000	205.893,000000
8,916600	1,000	206.379,000000
8,933267	1,000	207.303,000000
8,949933	1,000	209.248,000000
8,966600	1,000	212.882,000000
8,983267	1,000	218.890,000000
8,999933	1,000	227.763,000000
9,016600	1,000	239.531,000000
9,033267	1,000	253.603,000000
9,049933	1,000	268.594,000000
9,066600	1,000	282.547,000000
9,083267	1,000	293.547,000000
9,099933	1,000	300.097,000000
9,116600	1,000	301.382,000000
9,133267	1,000	297.488,000000
9,149933	1,000	289.091,000000
9,166600	1,000	277.394,000000
9,183267	1,000	263.807,000000
9,199933	1,000	249.660,000000
9,216600	1,000	236.136,000000
9,233267	1,000	224.151,000000
9,249933	1,000	214.217,000000
9,266600	1,000	206.272,000000
9,283267	1,000	200.016,000000
9,299933	1,000	195.262,000000
9,316600	1,000	191.734,000000
9,333267	1,000	189.123,000000
9,349933	1,000	187.283,000000
9,366600	1,000	186.143,000000
9,383267	1,000	185.882,000000
9,399933	1,000	186.812,000000
9,416600	1,000	189.472,000000
9,433267	1,000	194.779,000000
9,449933	1,000	204.528,000000
9,466600	1,000	221.579,000000
9,483267	1,000	249.117,000000
9,499933	1,000	289.689,000000
9,516600	1,000	343.888,000000
9,533267	1,000	408.882,000000
9,549933	1,000	478.661,000000
9,566600	1,000	545.105,000000
9,583267	1,000	599.617,000000
9,599933	1,000	635.148,000000
9,616600	1,000	647.844,000000
9,633267	1,000	637.567,000000
9,649933	1,000	607.485,000000
9,666600	1,000	562.776,000000
9,683267	1,000	509.521,000000
9,699933	1,000	453.553,000000
9,716600	1,000	399.526,000000
9,733267	1,000	350.697,000000
9,749933	1,000	309.104,000000
9,766600	1,000	275.599,000000
9,783267	1,000	249.965,000000
9,799933	1,000	231.305,000000
9,816600	1,000	218.283,000000
9,833267	1,000	209.369,000000
9,849933	1,000	203.377,000000
9,866600	1,000	199.501,000000
9,883267	1,000	196.998,000000
9,899933	1,000	195.276,000000
9,916600	1,000	194.001,000000
9,933267	1,000	192.989,000000
9,949933	1,000	192.196,000000
9,966600	1,000	191.654,000000
9,983267	1,000	191.429,000000
9,999933	1,000	191.568,000000
10,016600	1,000	192.065,000000
10,033267	1,000	192.847,000000
10,049933	1,000	193.810,000000
10,066600	1,000	194.921,000000
10,083267	1,000	196.146,000000
10,099933	1,000	197.520,000000
10,116600	1,000	198.980,000000
10,133267	1,000	200.406,000000
10,149933	1,000	201.979,000000
10,166600	1,000	204.363,000000
10,183267	1,000	208.399,000000
10,199933	1,000	215.207,000000
10,216600	1,000	225.996,000000
10,233267	1,000	241.600,000000
10,249933	1,000	262.182,000000
10,266600	1,000	287.077,000000
10,283267	1,000	314.540,000000
10,299933	1,000	341.884,000000
10,316600	1,000	366.086,000000
10,333267	1,000	384.391,000000
10,349933	1,000	394.982,000000
10,366600	1,000	397.456,000000
10,383267	1,000	392.490,000000
10,399933	1,000	381.403,000000
10,416600	1,000	366.006,000000
10,433267	1,000	348.477,000000
10,449933	1,000	331.326,000000
10,466600	1,000	318.461,000000
10,483267	1,000	317.770,000000
10,499933	1,000	346.565,000000
10,516600	1,000	441.934,000000
10,533267	1,000	676.149,000000
10,549933	1,000	1.173.694,000000
10,566600	1,000	2.121.428,000000
10,583267	1,000	3.757.310,000000
10,599933	1,000	6.323.929,000000
10,616600	1,000	9.989.490,000000
10,633267	1,000	14.752.889,000000
10,649933	1,000	20.374.726,000000
10,666600	1,000	26.371.802,000000
10,683267	1,000	32.093.433,000000
10,699933	1,000	36.855.587,000000
10,716600	1,000	40.087.405,000000
10,733267	1,000	41.444.822,000000
10,749933	1,000	40.860.190,000000
10,766600	1,000	38.524.295,000000
10,783267	1,000	34.818.086,000000
10,799933	1,000	30.222.261,000000
10,816600	1,000	25.228.764,000000
10,833267	1,000	20.271.962,000000
10,849933	1,000	15.686.103,000000
10,866600	1,000	11.689.323,000000
10,883267	1,000	8.388.401,000000
10,899933	1,000	5.797.605,000000
10,916600	1,000	3.864.455,000000
10,933267	1,000	2.495.890,000000
10,949933	1,000	1.580.715,000000
10,966600	1,000	1.007.224,000000
10,983267	1,000	675.003,000000
10,999933	1,000	501.231,000000
11,016600	1,000	422.607,000000
11,033267	1,000	394.419,000000
11,049933	1,000	387.819,000000
11,066600	1,000	386.078,000000
11,083267	1,000	380.978,000000
11,099933	1,000	369.950,000000
11,116600	1,000	353.742,000000
11,133267	1,000	334.636,000000
11,149933	1,000	315.264,000000
11,166600	1,000	298.143,000000
11,183267	1,000	285.771,000000
11,199933	1,000	280.826,000000
11,216600	1,000	286.621,000000
11,233267	1,000	307.326,000000
11,249933	1,000	347.610,000000
11,266600	1,000	412.152,000000
11,283267	1,000	505.039,000000
11,299933	1,000	628.613,000000
11,316600	1,000	781.869,000000
11,333267	1,000	959.626,000000
11,349933	1,000	1.152.006,000000
11,366600	1,000	1.344.843,000000
11,383267	1,000	1.521.253,000000
11,399933	1,000	1.664.126,000000
11,416600	1,000	1.758.991,000000
11,433267	1,000	1.796.662,000000
11,449933	1,000	1.774.582,000000
11,466600	1,000	1.696.945,000000
11,483267	1,000	1.573.897,000000
11,499933	1,000	1.419.233,000000
11,516600	1,000	1.247.746,000000
11,533267	1,000	1.073.328,000000
11,549933	1,000	907.400,000000
11,566600	1,000	758.095,000000
11,583267	1,000	630.017,000000
11,599933	1,000	524.747,000000
11,616600	1,000	442.096,000000
11,633267	1,000	381.284,000000
11,649933	1,000	342.564,000000
11,666600	1,000	329.314,000000
11,683267	1,000	350.932,000000
11,699933	1,000	425.622,000000
11,716600	1,000	581.583,000000
11,733267	1,000	856.056,000000
11,749933	1,000	1.289.790,000000
11,766600	1,000	1.915.684,000000
11,783267	1,000	2.744.649,000000
11,799933	1,000	3.753.312,000000
11,816600	1,000	4.877.506,000000
11,833267	1,000	6.017.548,000000
11,849933	1,000	7.054.339,000000
11,866600	1,000	7.872.055,000000
11,883267	1,000	8.381.149,000000
11,899933	1,000	8.534.235,000000
11,916600	1,000	8.331.524,000000
11,933267	1,000	7.815.998,000000
11,949933	1,000	7.061.237,000000
11,966600	1,000	6.156.274,000000
11,983267	1,000	5.190.853,000000
11,999933	1,000	4.244.283,000000
12,016600	1,000	3.378.662,000000
12,033267	1,000	2.636.214,000000
12,049933	1,000	2.039.384,000000
12,066600	1,000	1.593.286,000000
12,083267	1,000	1.288.878,000000
12,099933	1,000	1.106.748,000000
12,116600	1,000	1.020.594,000000
12,133267	1,000	1.000.772,000000
12,149933	1,000	1.017.732,000000
12,166600	1,000	1.045.271,000000
12,183267	1,000	1.063.285,000000
12,199933	1,000	1.059.089,000000
12,216600	1,000	1.027.357,000000
12,233267	1,000	968.981,000000
12,249933	1,000	889.257,000000
12,266600	1,000	795.788,000000
12,283267	1,000	696.892,000000
12,299933	1,000	600.346,000000
12,316600	1,000	512.568,000000
12,333267	1,000	438.379,000000
12,349933	1,000	380.973,000000
12,366600	1,000	342.155,000000
12,383267	1,000	322.760,000000
12,399933	1,000	323.078,000000
12,416600	1,000	343.024,000000
12,433267	1,000	381.960,000000
12,449933	1,000	438.250,000000
12,466600	1,000	508.639,000000
12,483267	1,000	588.000,000000
12,499933	1,000	669.385,000000
12,516600	1,000	744.777,000000
12,533267	1,000	806.062,000000
12,549933	1,000	846.594,000000
12,566600	1,000	862.338,000000
12,583267	1,000	852.281,000000
12,599933	1,000	818.401,000000
12,616600	1,000	765.143,000000
12,633267	1,000	698.455,000000
12,649933	1,000	624.700,000000
12,666600	1,000	549.765,000000
12,683267	1,000	478.359,000000
12,699933	1,000	413.912,000000
12,716600	1,000	358.518,000000
12,733267	1,000	313.090,000000
12,749933	1,000	277.474,000000
12,766600	1,000	250.772,000000
12,783267	1,000	231.694,000000
12,799933	1,000	218.861,000000
12,816600	1,000	211.094,000000
12,833267	1,000	207.522,000000
12,849933	1,000	207.516,000000
12,866600	1,000	210.792,000000
12,883267	1,000	217.447,000000
12,899933	1,000	228.096,000000
12,916600	1,000	243.406,000000
12,933267	1,000	263.577,000000
12,949933	1,000	288.023,000000
12,966600	1,000	315.343,000000
12,983267	1,000	343.251,000000
12,999933	1,000	369.170,000000
13,016600	1,000	390.969,000000
13,033267	1,000	407.409,000000
13,049933	1,000	418.782,000000
13,066600	1,000	427.067,000000
13,083267	1,000	435.404,000000
13,099933	1,000	447.786,000000
13,116600	1,000	468.559,000000
13,133267	1,000	502.346,000000
13,149933	1,000	555.273,000000
13,166600	1,000	638.575,000000
13,183267	1,000	775.989,000000
13,199933	1,000	1.014.370,000000
13,216600	1,000	1.436.432,000000
13,233267	1,000	2.170.077,000000
13,249933	1,000	3.386.671,000000
13,266600	1,000	5.281.344,000000
13,283267	1,000	8.031.092,000000
13,299933	1,000	11.732.853,000000
13,316600	1,000	16.342.592,000000
13,333267	1,000	21.637.216,000000
13,349933	1,000	27.216.007,000000
13,366600	1,000	32.551.369,000000
13,383267	1,000	37.082.081,000000
13,399933	1,000	40.320.412,000000
13,416600	1,000	41.941.026,000000
13,433267	1,000	41.829.699,000000
13,449933	1,000	40.085.290,000000
13,466600	1,000	36.980.854,000000
13,483267	1,000	32.899.472,000000
13,499933	1,000	28.264.083,000000
13,516600	1,000	23.475.904,000000
13,533267	1,000	18.869.958,000000
13,549933	1,000	14.691.247,000000
13,566600	1,000	11.089.789,000000
13,583267	1,000	8.130.116,000000
13,599933	1,000	5.809.494,000000
13,616600	1,000	4.080.401,000000
13,633267	1,000	2.874.318,000000
13,649933	1,000	2.123.851,000000
13,666600	1,000	1.780.691,000000
13,683267	1,000	1.827.518,000000
13,699933	1,000	2.280.719,000000
13,716600	1,000	3.181.105,000000
13,733267	1,000	4.572.466,000000
13,749933	1,000	6.470.077,000000
13,766600	1,000	8.829.763,000000
13,783267	1,000	11.526.755,000000
13,799933	1,000	14.354.276,000000
13,816600	1,000	17.048.311,000000
13,833267	1,000	19.331.612,000000
13,849933	1,000	20.964.897,000000
13,866600	1,000	21.789.672,000000
13,883267	1,000	21.752.305,000000
13,899933	1,000	20.905.076,000000
13,916600	1,000	19.386.522,000000
13,933267	1,000	17.389.715,000000
13,949933	1,000	15.127.154,000000
13,966600	1,000	12.799.874,000000
13,983267	1,000	10.574.676,000000
13,999933	1,000	8.571.670,000000
14,016600	1,000	6.861.401,000000
14,033267	1,000	5.468.920,000000
14,049933	1,000	4.382.757,000000
14,066600	1,000	3.566.547,000000
14,083267	1,000	2.970.414,000000
14,099933	1,000	2.541.243,000000
14,116600	1,000	2.230.916,000000
14,133267	1,000	2.002.120,000000
14,149933	1,000	1.832.288,000000
14,166600	1,000	1.716.067,000000
14,183267	1,000	1.666.362,000000
14,199933	1,000	1.713.313,000000
14,216600	1,000	1.900.217,000000
14,233267	1,000	2.275.240,000000
14,249933	1,000	2.878.132,000000
14,266600	1,000	3.726.254,000000
14,283267	1,000	4.801.211,000000
14,299933	1,000	6.041.415,000000
14,316600	1,000	7.345.917,000000
14,333267	1,000	8.587.927,000000
14,349933	1,000	9.636.278,000000
14,366600	1,000	10.378.627,000000
14,383267	1,000	10.740.349,000000
14,399933	1,000	10.695.663,000000
14,416600	1,000	10.267.984,000000
14,433267	1,000	9.521.081,000000
14,449933	1,000	8.545.359,000000
14,466600	1,000	7.441.932,000000
14,483267	1,000	6.308.110,000000
14,499933	1,000	5.226.111,000000
14,516600	1,000	4.256.713,000000
14,533267	1,000	3.436.926,000000
14,549933	1,000	2.780.924,000000
14,566600	1,000	2.284.008,000000
14,583267	1,000	1.928.310,000000
14,599933	1,000	1.689.047,000000
14,616600	1,000	1.539.985,000000
14,633267	1,000	1.457.899,000000
14,649933	1,000	1.425.256,000000
14,666600	1,000	1.430.503,000000
14,683267	1,000	1.466.695,000000
14,699933	1,000	1.529.017,000000
14,716600	1,000	1.611.602,000000
14,733267	1,000	1.705.974,000000
14,749933	1,000	1.800.411,000000
14,766600	1,000	1.881.412,000000
14,783267	1,000	1.936.081,000000
14,799933	1,000	1.954.543,000000
14,816600	1,000	1.931.895,000000
14,833267	1,000	1.869.114,000000
14,849933	1,000	1.772.810,000000
14,866600	1,000	1.653.498,000000
14,883267	1,000	1.523.396,000000
14,899933	1,000	1.394.360,000000
14,916600	1,000	1.276.412,000000
14,933267	1,000	1.176.424,000000
14,949933	1,000	1.097.427,000000
14,966600	1,000	1.038.466,000000
14,983267	1,000	995.481,000000
14,999933	1,000	962.574,000000
15,016600	1,000	933.321,000000
15,033267	1,000	902.047,000000
15,049933	1,000	864.751,000000
15,066600	1,000	819.555,000000
15,083267	1,000	766.431,000000
15,099933	1,000	706.825,000000
15,116600	1,000	643.299,000000
15,133267	1,000	578.940,000000
15,149933	1,000	516.522,000000
15,166600	1,000	458.238,000000
15,183267	1,000	405.729,000000
15,199933	1,000	360.040,000000
15,216600	1,000	321.818,000000
15,233267	1,000	291.604,000000
15,249933	1,000	270.011,000000
15,266600	1,000	258.287,000000
15,283267	1,000	258.423,000000
15,299933	1,000	272.925,000000
15,316600	1,000	304.718,000000
15,333267	1,000	356.489,000000
15,349933	1,000	429.450,000000
15,366600	1,000	522.605,000000
15,383267	1,000	631.761,000000
15,399933	1,000	749.534,000000
15,416600	1,000	865.922,000000
15,433267	1,000	969.816,000000
15,449933	1,000	1.050.987,000000
15,466600	1,000	1.101.568,000000
15,483267	1,000	1.117.236,000000
15,499933	1,000	1.097.823,000000
15,516600	1,000	1.046.992,000000
15,533267	1,000	971.137,000000
15,549933	1,000	878.192,000000
15,566600	1,000	776.425,000000
15,583267	1,000	673.393,000000
15,599933	1,000	575.240,000000
15,616600	1,000	486.394,000000
15,633267	1,000	409.490,000000
15,649933	1,000	345.662,000000
15,666600	1,000	294.852,000000
15,683267	1,000	256.162,000000
15,699933	1,000	228.353,000000
15,716600	1,000	209.906,000000
15,733267	1,000	199.195,000000
15,749933	1,000	194.715,000000
15,766600	1,000	195.232,000000
15,783267	1,000	199.858,000000
15,799933	1,000	207.921,000000
15,816600	1,000	218.655,000000
15,833267	1,000	231.306,000000
15,849933	1,000	245.043,000000
15,866600	1,000	258.835,000000
15,883267	1,000	271.747,000000
15,899933	1,000	282.873,000000
15,916600	1,000	291.311,000000
15,933267	1,000	296.386,000000
15,949933	1,000	298.023,000000
15,966600	1,000	296.780,000000
15,983267	1,000	293.370,000000
15,999933	1,000	288.534,000000
16,016600	1,000	283.318,000000
16,033267	1,000	278.973,000000
16,049933	1,000	277.042,000000
16,066600	1,000	278.955,000000
16,083267	1,000	286.029,000000
16,099933	1,000	299.359,000000
16,116600	1,000	319.246,000000
16,133267	1,000	345.220,000000
16,149933	1,000	376.010,000000
16,166600	1,000	409.540,000000
16,183267	1,000	443.241,000000
16,199933	1,000	474.358,000000
16,216600	1,000	500.278,000000
16,233267	1,000	519.093,000000
16,249933	1,000	529.940,000000
16,266600	1,000	532.976,000000
16,283267	1,000	529.274,000000
16,299933	1,000	520.326,000000
16,316600	1,000	507.591,000000
16,333267	1,000	492.133,000000
16,349933	1,000	474.644,000000
16,366600	1,000	455.417,000000
16,383267	1,000	434.504,000000
16,399933	1,000	412.006,000000
16,416600	1,000	387.995,000000
16,433267	1,000	362.937,000000
16,449933	1,000	337.916,000000
16,466600	1,000	314.790,000000
16,483267	1,000	296.850,000000
16,499933	1,000	290.110,000000
16,516600	1,000	305.625,000000
16,533267	1,000	363.157,000000
16,549933	1,000	496.161,000000
16,566600	1,000	757.262,000000
16,583267	1,000	1.222.985,000000
16,599933	1,000	1.993.200,000000
16,616600	1,000	3.182.061,000000
16,633267	1,000	4.899.439,000000
16,649933	1,000	7.222.093,000000
16,666600	1,000	10.161.151,000000
16,683267	1,000	13.635.568,000000
16,699933	1,000	17.460.585,000000
16,716600	1,000	21.358.564,000000
16,733267	1,000	24.995.512,000000
16,749933	1,000	28.032.684,000000
16,766600	1,000	30.181.377,000000
16,783267	1,000	31.250.173,000000
16,799933	1,000	31.171.815,000000
16,816600	1,000	30.005.213,000000
16,833267	1,000	27.915.383,000000
16,849933	1,000	25.138.389,000000
16,866600	1,000	21.941.484,000000
16,883267	1,000	18.585.563,000000
16,899933	1,000	15.296.682,000000
16,916600	1,000	12.248.972,000000
16,933267	1,000	9.558.110,000000
16,949933	1,000	7.283.994,000000
16,966600	1,000	5.439.188,000000
16,983267	1,000	4.000.848,000000
16,999933	1,000	2.923.034,000000
17,016600	1,000	2.147.375,000000
17,033267	1,000	1.612.003,000000
17,049933	1,000	1.258.085,000000
17,066600	1,000	1.033.778,000000
17,083267	1,000	896.203,000000
17,099933	1,000	812.086,000000
17,116600	1,000	757.375,000000
17,133267	1,000	716.218,000000
17,149933	1,000	679.716,000000
17,166600	1,000	644.417,000000
17,183267	1,000	611.194,000000
17,199933	1,000	584.631,000000
17,216600	1,000	572.339,000000
17,233267	1,000	584.600,000000
17,249933	1,000	633.971,000000
17,266600	1,000	734.626,000000
17,283267	1,000	900.715,000000
17,299933	1,000	1.143.375,000000
17,316600	1,000	1.467.671,000000
17,333267	1,000	1.869.860,000000
17,349933	1,000	2.334.901,000000
17,366600	1,000	2.836.671,000000
17,383267	1,000	3.340.136,000000
17,399933	1,000	3.805.771,000000
17,416600	1,000	4.195.314,000000
17,433267	1,000	4.476.576,000000
17,449933	1,000	4.627.634,000000
17,466600	1,000	4.639.897,000000
17,483267	1,000	4.518.418,000000
17,499933	1,000	4.279.980,000000
17,516600	1,000	3.949.759,000000
17,533267	1,000	3.557.260,000000
17,549933	1,000	3.132.406,000000
17,566600	1,000	2.702.613,000000
17,583267	1,000	2.290.610,000000
17,599933	1,000	1.913.229,000000
17,616600	1,000	1.580.987,000000
17,633267	1,000	1.298.595,000000
17,649933	1,000	1.065.922,000000
17,666600	1,000	879.211,000000
17,683267	1,000	732.479,000000
17,699933	1,000	618.842,000000
17,716600	1,000	531.574,000000
17,733267	1,000	464.639,000000
17,749933	1,000	412.867,000000
17,766600	1,000	372.109,000000
17,783267	1,000	339.472,000000
17,799933	1,000	313.187,000000
17,816600	1,000	292.178,000000
17,833267	1,000	275.987,000000
17,849933	1,000	264.792,000000
17,866600	1,000	259.008,000000
17,883267	1,000	259.093,000000
17,899933	1,000	265.126,000000
17,916600	1,000	276.711,000000
17,933267	1,000	292.993,000000
17,949933	1,000	312.613,000000
17,966600	1,000	333.963,000000
17,983267	1,000	355.271,000000
17,999933	1,000	374.699,000000
18,016600	1,000	390.332,000000
18,033267	1,000	400.428,000000
18,049933	1,000	403.966,000000
18,066600	1,000	400.583,000000
18,083267	1,000	390.487,000000
18,099933	1,000	374.618,000000
18,116600	1,000	354.439,000000
18,133267	1,000	331.669,000000
18,149933	1,000	307.895,000000
18,166600	1,000	284.364,000000
18,183267	1,000	262.118,000000
18,199933	1,000	242.042,000000
18,216600	1,000	224.796,000000
18,233267	1,000	210.872,000000
18,249933	1,000	200.571,000000
18,266600	1,000	194.099,000000
18,283267	1,000	191.665,000000
18,299933	1,000	193.416,000000
18,316600	1,000	199.676,000000
18,333267	1,000	211.150,000000
18,349933	1,000	228.745,000000
18,366600	1,000	253.327,000000
18,383267	1,000	285.645,000000
18,399933	1,000	326.369,000000
18,416600	1,000	375.645,000000
18,433267	1,000	432.648,000000
18,449933	1,000	495.314,000000
18,466600	1,000	559.951,000000
18,483267	1,000	621.715,000000
18,499933	1,000	675.419,000000
18,516600	1,000	716.448,000000
18,533267	1,000	741.499,000000
18,549933	1,000	748.901,000000
18,566600	1,000	738.684,000000
18,583267	1,000	712.423,000000
18,599933	1,000	672.823,000000
18,616600	1,000	623.391,000000
18,633267	1,000	568.088,000000
18,649933	1,000	510.938,000000
18,666600	1,000	455.469,000000
18,683267	1,000	404.430,000000
18,699933	1,000	359.810,000000
18,716600	1,000	322.982,000000
18,733267	1,000	295.050,000000
18,749933	1,000	277.114,000000
18,766600	1,000	270.350,000000
18,783267	1,000	276.474,000000
18,799933	1,000	298.067,000000
18,816600	1,000	339.344,000000
18,833267	1,000	407.102,000000
18,849933	1,000	511.435,000000
18,866600	1,000	665.953,000000
18,883267	1,000	886.459,000000
18,899933	1,000	1.188.486,000000
18,916600	1,000	1.582.829,000000
18,933267	1,000	2.071.307,000000
18,949933	1,000	2.642.917,000000
18,966600	1,000	3.271.593,000000
18,983267	1,000	3.917.544,000000
18,999933	1,000	4.532.081,000000
19,016600	1,000	5.065.162,000000
19,033267	1,000	5.473.182,000000
19,049933	1,000	5.725.509,000000
19,066600	1,000	5.807.764,000000
19,083267	1,000	5.722.368,000000
19,099933	1,000	5.486.395,000000
19,116600	1,000	5.127.738,000000
19,133267	1,000	4.680.151,000000
19,149933	1,000	4.178.305,000000
19,166600	1,000	3.654.551,000000
19,183267	1,000	3.136.695,000000
19,199933	1,000	2.646.364,000000
19,216600	1,000	2.198.883,000000
19,233267	1,000	1.803.698,000000
19,249933	1,000	1.464.895,000000
19,266600	1,000	1.182.215,000000
19,283267	1,000	952.314,000000
19,299933	1,000	769.730,000000
19,316600	1,000	627.818,000000
19,333267	1,000	519.498,000000
19,349933	1,000	437.820,000000
19,366600	1,000	376.692,000000
19,383267	1,000	331.106,000000
19,399933	1,000	297.280,000000
19,416600	1,000	272.332,000000
19,433267	1,000	254.041,000000
19,449933	1,000	240.836,000000
19,466600	1,000	231.666,000000
19,483267	1,000	225.759,000000
19,499933	1,000	222.502,000000
19,516600	1,000	221.442,000000
19,533267	1,000	222.269,000000
19,549933	1,000	224.820,000000
19,566600	1,000	229.032,000000
19,583267	1,000	234.794,000000
19,599933	1,000	242.030,000000
19,616600	1,000	250.748,000000
19,633267	1,000	261.192,000000
19,649933	1,000	273.575,000000
19,666600	1,000	287.904,000000
19,683267	1,000	303.872,000000
19,699933	1,000	320.774,000000
19,716600	1,000	337.500,000000
19,733267	1,000	352.767,000000
19,749933	1,000	365.316,000000
19,766600	1,000	374.013,000000
19,783267	1,000	378.020,000000
19,799933	1,000	376.899,000000
19,816600	1,000	370.691,000000
19,833267	1,000	359.923,000000
19,849933	1,000	345.510,000000
19,866600	1,000	328.588,000000
19,883267	1,000	310.433,000000
19,899933	1,000	292.197,000000
19,916600	1,000	274.853,000000
19,933267	1,000	259.350,000000
19,949933	1,000	246.601,000000
19,966600	1,000	237.461,000000
19,983267	1,000	232.913,000000
19,999933	1,000	233.948,000000
20,016600	1,000	241.740,000000
20,033267	1,000	258.133,000000
20,049933	1,000	285.630,000000
20,066600	1,000	327.148,000000
20,083267	1,000	385.532,000000
20,099933	1,000	463.076,000000
20,116600	1,000	560.783,000000
20,133267	1,000	677.829,000000
20,149933	1,000	810.859,000000
20,166600	1,000	953.591,000000
20,183267	1,000	1.096.856,000000
20,199933	1,000	1.229.756,000000
20,216600	1,000	1.341.293,000000
20,233267	1,000	1.422.185,000000
20,249933	1,000	1.466.179,000000
20,266600	1,000	1.470.504,000000
20,283267	1,000	1.436.174,000000
20,299933	1,000	1.367.746,000000
20,316600	1,000	1.272.561,000000
20,333267	1,000	1.159.832,000000
20,349933	1,000	1.039.672,000000
20,366600	1,000	922.247,000000
20,383267	1,000	817.285,000000
20,399933	1,000	733.875,000000
20,416600	1,000	680.201,000000
20,433267	1,000	662.749,000000
20,449933	1,000	685.723,000000
20,466600	1,000	750.540,000000
20,483267	1,000	854.754,000000
20,499933	1,000	991.563,000000
20,516600	1,000	1.149.773,000000
20,533267	1,000	1.314.454,000000
20,549933	1,000	1.468.697,000000
20,566600	1,000	1.595.826,000000
20,583267	1,000	1.681.995,000000
20,599933	1,000	1.718.304,000000
20,616600	1,000	1.701.979,000000
20,633267	1,000	1.636.155,000000
20,649933	1,000	1.528.719,000000
20,666600	1,000	1.390.641,000000
20,683267	1,000	1.234.302,000000
20,699933	1,000	1.071.821,000000
20,716600	1,000	913.821,000000
20,733267	1,000	768.429,000000
20,749933	1,000	640.880,000000
20,766600	1,000	533.781,000000
20,783267	1,000	447.649,000000
20,799933	1,000	381.343,000000
20,816600	1,000	332.706,000000
20,833267	1,000	298.808,000000
20,849933	1,000	276.526,000000
20,866600	1,000	262.961,000000
20,883267	1,000	255.403,000000
20,899933	1,000	251.590,000000
20,916600	1,000	249.864,000000
20,933267	1,000	248.990,000000
20,949933	1,000	248.016,000000
20,966600	1,000	246.181,000000
20,983267	1,000	243.118,000000
20,999933	1,000	238.711,000000
21,016600	1,000	233.085,000000
21,033267	1,000	226.549,000000
21,049933	1,000	219.478,000000
21,066600	1,000	212.396,000000
21,083267	1,000	205.818,000000
21,099933	1,000	200.152,000000
21,116600	1,000	195.479,000000
21,133267	1,000	191.614,000000
21,149933	1,000	188.469,000000
21,166600	1,000	186.071,000000
21,183267	1,000	184.338,000000
21,199933	1,000	183.172,000000
21,216600	1,000	182.479,000000
21,233267	1,000	182.116,000000
21,249933	1,000	181.961,000000
21,266600	1,000	182.084,000000
21,283267	1,000	182.691,000000
21,299933	1,000	184.215,000000
21,316600	1,000	187.289,000000
21,333267	1,000	192.647,000000
21,349933	1,000	200.999,000000
21,366600	1,000	212.952,000000
21,383267	1,000	229.024,000000
21,399933	1,000	249.748,000000
21,416600	1,000	275.673,000000
21,433267	1,000	307.509,000000
21,449933	1,000	346.290,000000
21,466600	1,000	393.204,000000
21,483267	1,000	449.093,000000
21,499933	1,000	513.804,000000
21,516600	1,000	586.030,000000
21,533267	1,000	663.180,000000
21,549933	1,000	741.692,000000
21,566600	1,000	817.754,000000
21,583267	1,000	888.630,000000
21,599933	1,000	954.817,000000
21,616600	1,000	1.022.972,000000
21,633267	1,000	1.108.902,000000
21,649933	1,000	1.240.468,000000
21,666600	1,000	1.458.821,000000
21,683267	1,000	1.818.440,000000
21,699933	1,000	2.383.033,000000
21,716600	1,000	3.217.476,000000
21,733267	1,000	4.375.037,000000
21,749933	1,000	5.882.099,000000
21,766600	1,000	7.722.903,000000
21,783267	1,000	9.828.695,000000
21,799933	1,000	12.077.508,000000
21,816600	1,000	14.305.748,000000
21,833267	1,000	16.328.039,000000
21,849933	1,000	17.964.595,000000
21,866600	1,000	19.069.129,000000
21,883267	1,000	19.550.663,000000
21,899933	1,000	19.384.378,000000
21,916600	1,000	18.610.540,000000
21,933267	1,000	17.324.353,000000
21,949933	1,000	15.658.439,000000
21,966600	1,000	13.762.033,000000
21,983267	1,000	11.781.434,000000
21,999933	1,000	9.844.358,000000
22,016600	1,000	8.050.125,000000
22,033267	1,000	6.465.309,000000
22,049933	1,000	5.124.219,000000
22,066600	1,000	4.033.148,000000
22,083267	1,000	3.177.019,000000
22,099933	1,000	2.526.561,000000
22,116600	1,000	2.045.155,000000
22,133267	1,000	1.694.669,000000
22,149933	1,000	1.439.839,000000
22,166600	1,000	1.250.936,000000
22,183267	1,000	1.104.828,000000
22,199933	1,000	985.193,000000
22,216600	1,000	881.853,000000
22,233267	1,000	789.451,000000
22,249933	1,000	706.206,000000
22,266600	1,000	632.748,000000
22,283267	1,000	571.190,000000
22,299933	1,000	524.170,000000
22,316600	1,000	494.275,000000
22,333267	1,000	483.512,000000
22,349933	1,000	492.651,000000
22,366600	1,000	521.003,000000
22,383267	1,000	566.378,000000
22,399933	1,000	624.864,000000
22,416600	1,000	690.904,000000
22,433267	1,000	758.144,000000
22,449933	1,000	820.227,000000
22,466600	1,000	871.777,000000
22,483267	1,000	909.275,000000
22,499933	1,000	931.855,000000
22,516600	1,000	942.465,000000
22,533267	1,000	948.759,000000
22,549933	1,000	964.165,000000
22,566600	1,000	1.008.482,000000
22,583267	1,000	1.106.713,000000
22,599933	1,000	1.287.685,000000
22,616600	1,000	1.580.231,000000
22,633267	1,000	2.007.978,000000
22,649933	1,000	2.582.897,000000
22,666600	1,000	3.299.380,000000
22,683267	1,000	4.130.405,000000
22,699933	1,000	5.027.345,000000
22,716600	1,000	5.925.133,000000
22,733267	1,000	6.750.608,000000
22,749933	1,000	7.431.806,000000
22,766600	1,000	7.908.880,000000
22,783267	1,000	8.142.743,000000
22,799933	1,000	8.119.996,000000
22,816600	1,000	7.853.037,000000
22,833267	1,000	7.375.954,000000
22,849933	1,000	6.737.836,000000
22,866600	1,000	5.995.038,000000
22,883267	1,000	5.203.527,000000
22,899933	1,000	4.413.413,000000
22,916600	1,000	3.665.334,000000
22,933267	1,000	2.988.341,000000
22,949933	1,000	2.399.598,000000
22,966600	1,000	1.905.620,000000
22,983267	1,000	1.504.481,000000
22,999933	1,000	1.188.242,000000
23,016600	1,000	945.488,000000
23,033267	1,000	763.589,000000
23,049933	1,000	630.310,000000
23,066600	1,000	534.533,000000
23,083267	1,000	466.756,000000
23,099933	1,000	419.402,000000
23,116600	1,000	386.869,000000
23,133267	1,000	365.235,000000
23,149933	1,000	351.929,000000
23,166600	1,000	345.526,000000
23,183267	1,000	345.325,000000
23,199933	1,000	350.803,000000
23,216600	1,000	361.193,000000
23,233267	1,000	375.352,000000
23,249933	1,000	391.952,000000
23,266600	1,000	409.471,000000
23,283267	1,000	426.208,000000
23,299933	1,000	440.488,000000
23,316600	1,000	450.842,000000
23,333267	1,000	456.240,000000
23,349933	1,000	456.058,000000
23,366600	1,000	450.017,000000
23,383267	1,000	438.526,000000
23,399933	1,000	422.512,000000
23,416600	1,000	403.073,000000
23,433267	1,000	381.626,000000
23,449933	1,000	359.803,000000
23,466600	1,000	339.029,000000
23,483267	1,000	320.428,000000
23,499933	1,000	304.872,000000
23,516600	1,000	293.045,000000
23,533267	1,000	285.162,000000
23,549933	1,000	280.978,000000
23,566600	1,000	279.836,000000
23,583267	1,000	280.715,000000
23,599933	1,000	282.350,000000
23,616600	1,000	283.529,000000
23,633267	1,000	283.317,000000
23,649933	1,000	281.180,000000
23,666600	1,000	276.921,000000
23,683267	1,000	270.662,000000
23,699933	1,000	262.846,000000
23,716600	1,000	254.178,000000
23,733267	1,000	245.306,000000
23,749933	1,000	236.749,000000
23,766600	1,000	228.952,000000
23,783267	1,000	222.411,000000
23,799933	1,000	217.834,000000
23,816600	1,000	216.095,000000
23,833267	1,000	218.215,000000
23,849933	1,000	225.313,000000
23,866600	1,000	238.219,000000
23,883267	1,000	257.374,000000
23,899933	1,000	282.757,000000
23,916600	1,000	313.690,000000
23,933267	1,000	348.614,000000
23,949933	1,000	385.289,000000
23,966600	1,000	420.982,000000
23,983267	1,000	452.628,000000
23,999933	1,000	477.175,000000
24,016600	1,000	492.255,000000
24,033267	1,000	496.395,000000
24,049933	1,000	489.219,000000
24,066600	1,000	471.586,000000
24,083267	1,000	445.319,000000
24,099933	1,000	413.026,000000
24,116600	1,000	377.543,000000
24,133267	1,000	341.501,000000
24,149933	1,000	307.142,000000
24,166600	1,000	276.056,000000
24,183267	1,000	249.373,000000
24,199933	1,000	227.694,000000
24,216600	1,000	211.090,000000
24,233267	1,000	199.177,000000
24,249933	1,000	191.268,000000
24,266600	1,000	186.757,000000
24,283267	1,000	185.123,000000
24,299933	1,000	185.991,000000
24,316600	1,000	189.185,000000
24,333267	1,000	194.660,000000
24,349933	1,000	202.717,000000
24,366600	1,000	213.923,000000
24,383267	1,000	228.732,000000
24,399933	1,000	247.139,000000
24,416600	1,000	268.622,000000
24,433267	1,000	292.071,000000
24,449933	1,000	315.912,000000
24,466600	1,000	338.392,000000
24,483267	1,000	357.694,000000
24,499933	1,000	372.210,000000
24,516600	1,000	380.725,000000
24,533267	1,000	382.585,000000
24,549933	1,000	377.849,000000
24,566600	1,000	367.136,000000
24,583267	1,000	351.452,000000
24,599933	1,000	332.088,000000
24,616600	1,000	310.433,000000
24,633267	1,000	287.785,000000
24,649933	1,000	265.460,000000
24,666600	1,000	244.768,000000
24,683267	1,000	226.780,000000
24,699933	1,000	212.505,000000
24,716600	1,000	202.946,000000
24,733267	1,000	198.974,000000
24,749933	1,000	201.314,000000
24,766600	1,000	210.457,000000
24,783267	1,000	226.526,000000
24,799933	1,000	249.226,000000
24,816600	1,000	277.741,000000
24,833267	1,000	310.678,000000
24,849933	1,000	346.262,000000
24,866600	1,000	382.476,000000
24,883267	1,000	417.236,000000
24,899933	1,000	448.957,000000
24,916600	1,000	476.572,000000
24,933267	1,000	499.709,000000
24,949933	1,000	518.764,000000
24,966600	1,000	534.542,000000
24,983267	1,000	547.961,000000
24,999933	1,000	559.587,000000
25,016600	1,000	569.447,000000
25,033267	1,000	577.065,000000
25,049933	1,000	581.652,000000
25,066600	1,000	582.083,000000
25,083267	1,000	577.215,000000
25,099933	1,000	566.381,000000
25,116600	1,000	549.702,000000
25,133267	1,000	528.239,000000
25,149933	1,000	503.790,000000
25,166600	1,000	478.720,000000
25,183267	1,000	456.170,000000
25,199933	1,000	440.467,000000
25,216600	1,000	437.700,000000
25,233267	1,000	456.197,000000
25,249933	1,000	506.867,000000
25,266600	1,000	603.084,000000
25,283267	1,000	759.203,000000
25,299933	1,000	988.234,000000
25,316600	1,000	1.298.460,000000
25,333267	1,000	1.690.016,000000
25,349933	1,000	2.152.589,000000
25,366600	1,000	2.664.338,000000
25,383267	1,000	3.192.510,000000
25,399933	1,000	3.696.857,000000
25,416600	1,000	4.135.303,000000
25,433267	1,000	4.470.247,000000
25,449933	1,000	4.674.127,000000
25,466600	1,000	4.732.809,000000
25,483267	1,000	4.646.533,000000
25,499933	1,000	4.428.855,000000
25,516600	1,000	4.103.853,000000
25,533267	1,000	3.701.921,000000
25,549933	1,000	3.255.376,000000
25,566600	1,000	2.794.871,000000
25,583267	1,000	2.346.769,000000
25,599933	1,000	1.931.407,000000
25,616600	1,000	1.562.422,000000
25,633267	1,000	1.246.833,000000
25,649933	1,000	986.065,000000
25,666600	1,000	777.400,000000
25,683267	1,000	615.401,000000
25,699933	1,000	493.335,000000
25,716600	1,000	404.065,000000
25,733267	1,000	340.655,000000
25,749933	1,000	296.968,000000
25,766600	1,000	267.835,000000
25,783267	1,000	249.006,000000
25,799933	1,000	237.296,000000
25,816600	1,000	230.504,000000
25,833267	1,000	227.292,000000
25,849933	1,000	227.008,000000
25,866600	1,000	229.558,000000
25,883267	1,000	235.243,000000
25,899933	1,000	244.663,000000
25,916600	1,000	258.727,000000
25,933267	1,000	278.562,000000
25,949933	1,000	305.321,000000
25,966600	1,000	339.571,000000
25,983267	1,000	380.952,000000
25,999933	1,000	428.126,000000
26,016600	1,000	478.464,000000
26,033267	1,000	528.546,000000
26,049933	1,000	574.692,000000
26,066600	1,000	613.344,000000
26,083267	1,000	641.350,000000
26,099933	1,000	656.572,000000
26,116600	1,000	658.251,000000
26,133267	1,000	646.809,000000
26,149933	1,000	623.807,000000
26,166600	1,000	591.734,000000
26,183267	1,000	553.779,000000
26,199933	1,000	513.125,000000
26,216600	1,000	472.431,000000
26,233267	1,000	433.751,000000
26,249933	1,000	398.481,000000
26,266600	1,000	367.601,000000
26,283267	1,000	341.941,000000
26,299933	1,000	322.770,000000
26,316600	1,000	312.234,000000
26,333267	1,000	314.336,000000
26,349933	1,000	336.071,000000
26,366600	1,000	388.318,000000
26,383267	1,000	486.506,000000
26,399933	1,000	650.262,000000
26,416600	1,000	901.665,000000
26,433267	1,000	1.261.948,000000
26,449933	1,000	1.747.068,000000
26,466600	1,000	2.362.636,000000
26,483267	1,000	3.098.519,000000
26,499933	1,000	3.925.412,000000
26,516600	1,000	4.795.018,000000
26,533267	1,000	5.644.917,000000
26,549933	1,000	6.406.975,000000
26,566600	1,000	7.016.959,000000
26,583267	1,000	7.423.557,000000
26,599933	1,000	7.595.412,000000
26,616600	1,000	7.524.994,000000
26,633267	1,000	7.228.009,000000
26,649933	1,000	6.739.360,000000
26,666600	1,000	6.107.236,000000
26,683267	1,000	5.386.013,000000
26,699933	1,000	4.629.140,000000
26,716600	1,000	3.883.484,000000
26,733267	1,000	3.185.875,000000
26,749933	1,000	2.561.826,000000
26,766600	1,000	2.025.886,000000
26,783267	1,000	1.582.992,000000
26,799933	1,000	1.230.785,000000
26,816600	1,000	962.552,000000
26,833267	1,000	770.265,000000
26,849933	1,000	647.103,000000
26,866600	1,000	590.001,000000
26,883267	1,000	601.531,000000
26,899933	1,000	690.719,000000
26,916600	1,000	872.478,000000
26,933267	1,000	1.165.136,000000
26,949933	1,000	1.586.035,000000
26,966600	1,000	2.145.660,000000
26,983267	1,000	2.842.085,000000
26,999933	1,000	3.656.652,000000
27,016600	1,000	4.551.352,000000
27,033267	1,000	5.470.479,000000
27,049933	1,000	6.346.749,000000
27,066600	1,000	7.110.234,000000
27,083267	1,000	7.698.318,000000
27,099933	1,000	8.064.382,000000
27,116600	1,000	8.183.629,000000
27,133267	1,000	8.055.220,000000
27,149933	1,000	7.700.572,000000
27,166600	1,000	7.158.741,000000
27,183267	1,000	6.480.187,000000
27,199933	1,000	5.719.559,000000
27,216600	1,000	4.929.051,000000
27,233267	1,000	4.153.935,000000
27,249933	1,000	3.429.682,000000
27,266600	1,000	2.780.450,000000
27,283267	1,000	2.219.485,000000
27,299933	1,000	1.750.710,000000
27,316600	1,000	1.371.006,000000
27,333267	1,000	1.072.429,000000
27,349933	1,000	844.276,000000
27,366600	1,000	675.106,000000
27,383267	1,000	553.739,000000
27,399933	1,000	470.305,000000
27,416600	1,000	416.533,000000
27,433267	1,000	385.807,000000
27,449933	1,000	373.320,000000
27,466600	1,000	375.813,000000
27,483267	1,000	390.851,000000
27,499933	1,000	416.545,000000
27,516600	1,000	451.075,000000
27,533267	1,000	492.216,000000
27,549933	1,000	537.220,000000
27,566600	1,000	582.857,000000
27,583267	1,000	625.720,000000
27,599933	1,000	662.626,000000
27,616600	1,000	690.906,000000
27,633267	1,000	708.748,000000
27,649933	1,000	715.371,000000
27,666600	1,000	710.701,000000
27,683267	1,000	695.544,000000
27,699933	1,000	671.343,000000
27,716600	1,000	639.867,000000
27,733267	1,000	603.042,000000
27,749933	1,000	562.865,000000
27,766600	1,000	521.178,000000
27,783267	1,000	479.517,000000
27,799933	1,000	439.084,000000
27,816600	1,000	400.775,000000
27,833267	1,000	365.217,000000
27,849933	1,000	332.778,000000
27,866600	1,000	303.595,000000
27,883267	1,000	277.679,000000
27,899933	1,000	254.971,000000
27,916600	1,000	235.342,000000
27,933267	1,000	218.638,000000
27,949933	1,000	204.727,000000
27,966600	1,000	193.458,000000
27,983267	1,000	184.513,000000
27,999933	1,000	177.491,000000
28,016600	1,000	171.921,000000
28,033267	1,000	167.362,000000
28,049933	1,000	163.595,000000
28,066600	1,000	160.391,000000
28,083267	1,000	157.416,000000
28,099933	1,000	154.393,000000
28,116600	1,000	151.169,000000
28,133267	1,000	147.684,000000
28,149933	1,000	143.896,000000
28,166600	1,000	139.713,000000
28,183267	1,000	135.284,000000
28,199933	1,000	130.874,000000
28,216600	1,000	126.660,000000
28,233267	1,000	122.767,000000
28,249933	1,000	119.238,000000
28,266600	1,000	116.072,000000
28,283267	1,000	113.264,000000
28,299933	1,000	110.796,000000
28,316600	1,000	108.660,000000
28,333267	1,000	106.951,000000
28,349933	1,000	105.696,000000
28,366600	1,000	104.765,000000
28,383267	1,000	104.159,000000
28,399933	1,000	103.943,000000
28,416600	1,000	104.001,000000
28,433267	1,000	104.073,000000
28,449933	1,000	104.009,000000
28,466600	1,000	103.765,000000
28,483267	1,000	103.358,000000
28,499933	1,000	102.881,000000
28,516600	1,000	102.373,000000
28,533267	1,000	101.847,000000
28,549933	1,000	101.515,000000
28,566600	1,000	101.594,000000
28,583267	1,000	102.052,000000
28,599933	1,000	102.912,000000
28,616600	1,000	104.104,000000
28,633267	1,000	105.463,000000
28,649933	1,000	106.971,000000
28,666600	1,000	108.601,000000
28,683267	1,000	110.270,000000
28,699933	1,000	112.006,000000
28,716600	1,000	113.906,000000
28,733267	1,000	116.024,000000
28,749933	1,000	118.422,000000
28,766600	1,000	121.143,000000
28,783267	1,000	124.554,000000
28,799933	1,000	129.335,000000
28,816600	1,000	136.127,000000
28,833267	1,000	145.545,000000
28,849933	1,000	158.274,000000
28,866600	1,000	174.853,000000
28,883267	1,000	195.534,000000
28,899933	1,000	220.107,000000
28,916600	1,000	247.629,000000
28,933267	1,000	276.353,000000
28,949933	1,000	304.141,000000
28,966600	1,000	329.017,000000
28,983267	1,000	349.230,000000
28,999933	1,000	363.420,000000
29,016600	1,000	370.863,000000
29,033267	1,000	371.565,000000
29,049933	1,000	366.082,000000
29,066600	1,000	355.291,000000
29,083267	1,000	340.505,000000
29,099933	1,000	323.271,000000
29,116600	1,000	304.999,000000
29,133267	1,000	286.554,000000
29,149933	1,000	268.494,000000
29,166600	1,000	251.396,000000
29,183267	1,000	235.681,000000
29,199933	1,000	221.565,000000
29,216600	1,000	209.254,000000
29,233267	1,000	198.817,000000
29,249933	1,000	190.006,000000
29,266600	1,000	182.476,000000
29,283267	1,000	175.853,000000
29,299933	1,000	169.794,000000
29,316600	1,000	164.028,000000
29,333267	1,000	158.445,000000
29,349933	1,000	152.977,000000
29,366600	1,000	147.504,000000
29,383267	1,000	141.990,000000
29,399933	1,000	136.561,000000
29,416600	1,000	131.532,000000
29,433267	1,000	127.246,000000
29,449933	1,000	123.887,000000
29,466600	1,000	121.507,000000
29,483267	1,000	120.022,000000
29,499933	1,000	119.294,000000
29,516600	1,000	119.102,000000
29,533267	1,000	119.263,000000
29,549933	1,000	119.518,000000
29,566600	1,000	119.590,000000
29,583267	1,000	119.317,000000
29,599933	1,000	118.695,000000
29,616600	1,000	117.830,000000
29,633267	1,000	116.718,000000
29,649933	1,000	115.312,000000
29,666600	1,000	113.606,000000
29,683267	1,000	111.719,000000
29,699933	1,000	109.833,000000
29,716600	1,000	108.113,000000
29,733267	1,000	106.612,000000
29,749933	1,000	105.264,000000
29,766600	1,000	104.033,000000
29,783267	1,000	102.862,000000
29,799933	1,000	101.604,000000
29,816600	1,000	100.165,000000
29,833267	1,000	98.503,000000
29,849933	1,000	96.689,000000
29,866600	1,000	95.004,000000
29,883267	1,000	93.763,000000
29,899933	1,000	93.156,000000
29,916600	1,000	93.346,000000
29,933267	1,000	94.514,000000
29,949933	1,000	96.843,000000
29,966600	1,000	100.311,000000
29,983267	1,000	104.742,000000
29,999933	1,000	110.011,000000
30,016600	1,000	116.019,000000
30,033267	1,000	122.593,000000
30,049933	1,000	129.353,000000
30,066600	1,000	135.723,000000
30,083267	1,000	141.123,000000
30,099933	1,000	145.181,000000
30,116600	1,000	147.645,000000
30,133267	1,000	148.245,000000
30,149933	1,000	146.838,000000
30,166600	1,000	143.589,000000
30,183267	1,000	138.954,000000
30,199933	1,000	133.462,000000
30,216600	1,000	127.674,000000
30,233267	1,000	122.041,000000
30,249933	1,000	116.849,000000
30,266600	1,000	112.349,000000
30,283267	1,000	108.680,000000
30,299933	1,000	105.933,000000
30,316600	1,000	104.209,000000
30,333267	1,000	103.460,000000
30,349933	1,000	103.533,000000
30,366600	1,000	104.259,000000
30,383267	1,000	105.539,000000
30,399933	1,000	107.439,000000
30,416600	1,000	109.995,000000
30,433267	1,000	113.244,000000
30,449933	1,000	117.116,000000
30,466600	1,000	121.302,000000
30,483267	1,000	125.375,000000
30,499933	1,000	129.059,000000
30,516600	1,000	132.120,000000
30,533267	1,000	134.230,000000
30,549933	1,000	135.029,000000
30,566600	1,000	134.302,000000
30,583267	1,000	132.231,000000
30,599933	1,000	129.182,000000
30,616600	1,000	125.498,000000
30,633267	1,000	121.459,000000
30,649933	1,000	117.259,000000
30,666600	1,000	113.076,000000
30,683267	1,000	109.115,000000
30,699933	1,000	105.553,000000
30,716600	1,000	102.524,000000
30,733267	1,000	100.074,000000
30,749933	1,000	98.205,000000
30,766600	1,000	96.911,000000
30,783267	1,000	96.182,000000
30,799933	1,000	96.139,000000
30,816600	1,000	96.851,000000
30,833267	1,000	98.159,000000
30,849933	1,000	99.824,000000
30,866600	1,000	101.598,000000
30,883267	1,000	103.434,000000
30,899933	1,000	105.131,000000
30,916600	1,000	106.417,000000
30,933267	1,000	107.087,000000
30,949933	1,000	107.140,000000
30,966600	1,000	106.701,000000
30,983267	1,000	105.947,000000
30,999933	1,000	104.980,000000
31,016600	1,000	103.741,000000
31,033267	1,000	102.120,000000
31,049933	1,000	100.166,000000
31,066600	1,000	98.180,000000
31,083267	1,000	96.471,000000
31,099933	1,000	95.224,000000
31,116600	1,000	94.393,000000
31,133267	1,000	93.767,000000
31,149933	1,000	93.284,000000
31,166600	1,000	92.972,000000
31,183267	1,000	92.853,000000
31,199933	1,000	93.102,000000
31,216600	1,000	93.731,000000
31,233267	1,000	94.453,000000
31,249933	1,000	95.026,000000
31,266600	1,000	95.305,000000
31,283267	1,000	95.463,000000
31,299933	1,000	95.850,000000
31,316600	1,000	96.567,000000
31,333267	1,000	97.449,000000
31,349933	1,000	98.170,000000
31,366600	1,000	98.449,000000
31,383267	1,000	98.128,000000
31,399933	1,000	97.174,000000
31,416600	1,000	95.757,000000
31,433267	1,000	94.285,000000
31,449933	1,000	93.025,000000
31,466600	1,000	92.134,000000
31,483267	1,000	91.786,000000
31,499933	1,000	92.416,000000
31,516600	1,000	94.481,000000
31,533267	1,000	98.497,000000
31,549933	1,000	105.120,000000
31,566600	1,000	115.303,000000
31,583267	1,000	130.288,000000
31,599933	1,000	151.389,000000
31,616600	1,000	179.706,000000
31,633267	1,000	215.944,000000
31,649933	1,000	259.830,000000
31,666600	1,000	310.018,000000
31,683267	1,000	364.098,000000
31,699933	1,000	418.670,000000
31,716600	1,000	469.908,000000
31,733267	1,000	513.877,000000
31,749933	1,000	547.176,000000
31,766600	1,000	567.187,000000
31,783267	1,000	572.498,000000
31,799933	1,000	563.268,000000
31,816600	1,000	541.164,000000
31,833267	1,000	508.838,000000
31,849933	1,000	469.333,000000
31,866600	1,000	425.716,000000
31,883267	1,000	380.768,000000
31,899933	1,000	336.888,000000
31,916600	1,000	295.995,000000
31,933267	1,000	259.473,000000
31,949933	1,000	228.126,000000
31,966600	1,000	202.109,000000
31,983267	1,000	181.202,000000
31,999933	1,000	164.903,000000
32,016600	1,000	152.481,000000
32,033267	1,000	143.059,000000
32,049933	1,000	135.809,000000
32,066600	1,000	130.190,000000
32,083267	1,000	125.687,000000
32,099933	1,000	121.845,000000
32,116600	1,000	118.445,000000
32,133267	1,000	115.416,000000
32,149933	1,000	112.847,000000
32,166600	1,000	110.676,000000
32,183267	1,000	108.847,000000
32,199933	1,000	107.297,000000
32,216600	1,000	105.965,000000
32,233267	1,000	104.995,000000
32,249933	1,000	104.890,000000
32,266600	1,000	106.371,000000
32,283267	1,000	110.374,000000
32,299933	1,000	118.227,000000
32,316600	1,000	131.550,000000
32,333267	1,000	151.241,000000
32,349933	1,000	176.273,000000
32,366600	1,000	203.588,000000
32,383267	1,000	229.066,000000
32,399933	1,000	249.251,000000
32,416600	1,000	263.936,000000
32,433267	1,000	281.269,000000
32,449933	1,000	320.508,000000
32,466600	1,000	403.496,000000
32,483267	1,000	534.027,000000
32,499933	1,000	689.605,000000
32,516600	1,000	837.882,000000
32,533267	1,000	955.761,000000
32,549933	1,000	1.034.140,000000
32,566600	1,000	1.070.428,000000
32,583267	1,000	1.064.851,000000
32,599933	1,000	1.021.789,000000
32,616600	1,000	950.450,000000
32,633267	1,000	862.480,000000
32,649933	1,000	769.317,000000
32,666600	1,000	680.572,000000
32,683267	1,000	603.286,000000
32,699933	1,000	542.028,000000
32,716600	1,000	497.751,000000
32,733267	1,000	468.444,000000
32,749933	1,000	450.499,000000
32,766600	1,000	439.373,000000
32,783267	1,000	430.685,000000
32,799933	1,000	420.793,000000
32,816600	1,000	407.304,000000
32,833267	1,000	389.369,000000
32,849933	1,000	367.568,000000
32,866600	1,000	343.462,000000
32,883267	1,000	318.782,000000
32,899933	1,000	294.972,000000
32,916600	1,000	273.073,000000
32,933267	1,000	253.764,000000
32,949933	1,000	237.529,000000
32,966600	1,000	224.614,000000
32,983267	1,000	214.951,000000
32,999933	1,000	208.264,000000
33,016600	1,000	204.178,000000
33,033267	1,000	202.208,000000
33,049933	1,000	201.725,000000
33,066600	1,000	202.084,000000
33,083267	1,000	202.871,000000
33,099933	1,000	203.903,000000
33,116600	1,000	204.820,000000
33,133267	1,000	205.344,000000
33,149933	1,000	205.468,000000
33,166600	1,000	205.359,000000
33,183267	1,000	205.156,000000
33,199933	1,000	204.862,000000
33,216600	1,000	204.531,000000
33,233267	1,000	204.268,000000
33,249933	1,000	204.061,000000
33,266600	1,000	203.864,000000
33,283267	1,000	203.590,000000
33,299933	1,000	203.084,000000
33,316600	1,000	202.270,000000
33,333267	1,000	201.186,000000
33,349933	1,000	199.909,000000
33,366600	1,000	198.397,000000
33,383267	1,000	196.618,000000
33,399933	1,000	194.734,000000
33,416600	1,000	193.046,000000
33,433267	1,000	191.823,000000
33,449933	1,000	191.117,000000
33,466600	1,000	190.721,000000
33,483267	1,000	190.461,000000
33,499933	1,000	190.213,000000
33,516600	1,000	189.845,000000
33,533267	1,000	189.324,000000
33,549933	1,000	188.753,000000
33,566600	1,000	188.215,000000
33,583267	1,000	187.737,000000
33,599933	1,000	187.275,000000
33,616600	1,000	186.786,000000
33,633267	1,000	186.335,000000
33,649933	1,000	186.008,000000
33,666600	1,000	185.855,000000
33,683267	1,000	185.903,000000
33,699933	1,000	186.061,000000
33,716600	1,000	186.175,000000
33,733267	1,000	186.047,000000
33,749933	1,000	185.556,000000
33,766600	1,000	184.672,000000
33,783267	1,000	183.483,000000
33,799933	1,000	182.168,000000
33,816600	1,000	180.844,000000
33,833267	1,000	179.557,000000
33,849933	1,000	178.395,000000
33,866600	1,000	177.442,000000
33,883267	1,000	176.710,000000
33,899933	1,000	176.147,000000
33,916600	1,000	175.516,000000
33,933267	1,000	174.704,000000
33,949933	1,000	173.760,000000
33,966600	1,000	172.799,000000
33,983267	1,000	171.981,000000
33,999933	1,000	171.406,000000
34,016600	1,000	171.078,000000
34,033267	1,000	170.895,000000
34,049933	1,000	170.646,000000
34,066600	1,000	170.260,000000
34,083267	1,000	169.744,000000
34,099933	1,000	169.110,000000
34,116600	1,000	168.378,000000
34,133267	1,000	167.604,000000
34,149933	1,000	166.807,000000
34,166600	1,000	166.098,000000
34,183267	1,000	165.576,000000
34,199933	1,000	165.190,000000
34,216600	1,000	164.726,000000
34,233267	1,000	164.005,000000
34,249933	1,000	163.041,000000
34,266600	1,000	161.939,000000
34,283267	1,000	160.727,000000
34,299933	1,000	159.394,000000
34,316600	1,000	158.131,000000
34,333267	1,000	157.203,000000
34,349933	1,000	156.645,000000
34,366600	1,000	156.348,000000
34,383267	1,000	156.296,000000
34,399933	1,000	156.540,000000
34,416600	1,000	157.021,000000
34,433267	1,000	157.584,000000
34,449933	1,000	158.097,000000
34,466600	1,000	158.472,000000
34,483267	1,000	158.644,000000
34,499933	1,000	158.625,000000
34,516600	1,000	158.470,000000
34,533267	1,000	158.131,000000
34,549933	1,000	157.622,000000
34,566600	1,000	156.986,000000
34,583267	1,000	156.172,000000
34,599933	1,000	155.307,000000
34,616600	1,000	154.573,000000
34,633267	1,000	154.065,000000
34,649933	1,000	153.847,000000
34,666600	1,000	153.831,000000
34,683267	1,000	153.930,000000
34,699933	1,000	154.029,000000
34,716600	1,000	153.981,000000
34,733267	1,000	153.703,000000
34,749933	1,000	153.205,000000
34,766600	1,000	152.628,000000
34,783267	1,000	152.129,000000
34,799933	1,000	151.693,000000
34,816600	1,000	151.203,000000
34,833267	1,000	150.661,000000
34,849933	1,000	150.122,000000
34,866600	1,000	149.597,000000
34,883267	1,000	149.006,000000
34,899933	1,000	148.426,000000
34,916600	1,000	147.911,000000
34,933267	1,000	147.450,000000
34,949933	1,000	146.936,000000
34,966600	1,000	146.272,000000
34,983267	1,000	145.459,000000
34,999933	1,000	144.627,000000
35,016600	1,000	143.977,000000
35,033267	1,000	143.563,000000
35,049933	1,000	143.303,000000
35,066600	1,000	143.062,000000
35,083267	1,000	142.674,000000
35,099933	1,000	142.152,000000
35,116600	1,000	141.587,000000
35,133267	1,000	141.104,000000
35,149933	1,000	140.768,000000
35,166600	1,000	140.538,000000
35,183267	1,000	140.398,000000
35,199933	1,000	140.322,000000
35,216600	1,000	140.358,000000
35,233267	1,000	140.562,000000
35,249933	1,000	140.937,000000
35,266600	1,000	141.391,000000
35,283267	1,000	141.827,000000
35,299933	1,000	142.127,000000
35,316600	1,000	142.146,000000
35,333267	1,000	141.861,000000
35,349933	1,000	141.382,000000
35,366600	1,000	140.901,000000
35,383267	1,000	140.580,000000
35,399933	1,000	140.465,000000
35,416600	1,000	140.509,000000
35,433267	1,000	140.606,000000
35,449933	1,000	140.709,000000
35,466600	1,000	140.783,000000
35,483267	1,000	140.732,000000
35,499933	1,000	140.625,000000
35,516600	1,000	140.570,000000
35,533267	1,000	140.616,000000
35,549933	1,000	140.789,000000
35,566600	1,000	141.053,000000
35,583267	1,000	141.277,000000
35,599933	1,000	141.333,000000
35,616600	1,000	141.168,000000
35,633267	1,000	140.827,000000
35,649933	1,000	140.387,000000
35,666600	1,000	140.017,000000
35,683267	1,000	139.773,000000
35,699933	1,000	139.573,000000
35,716600	1,000	139.323,000000
35,733267	1,000	138.967,000000
35,749933	1,000	138.493,000000
35,766600	1,000	138.032,000000
35,783267	1,000	137.664,000000
35,799933	1,000	137.348,000000
35,816600	1,000	137.019,000000
35,833267	1,000	136.743,000000
35,849933	1,000	136.591,000000
35,866600	1,000	136.615,000000
35,883267	1,000	136.717,000000
35,899933	1,000	136.789,000000
35,916600	1,000	136.942,000000
35,933267	1,000	137.200,000000
35,949933	1,000	137.436,000000
35,966600	1,000	137.689,000000
35,983267	1,000	138.104,000000
35,999933	1,000	138.805,000000
36,016600	1,000	139.865,000000
36,033267	1,000	141.143,000000
36,049933	1,000	142.432,000000
36,066600	1,000	143.646,000000
36,083267	1,000	144.798,000000
36,099933	1,000	145.902,000000
36,116600	1,000	146.830,000000
36,133267	1,000	147.433,000000
36,149933	1,000	147.685,000000
36,166600	1,000	147.465,000000
36,183267	1,000	146.724,000000
36,199933	1,000	145.579,000000
36,216600	1,000	144.211,000000
36,233267	1,000	142.759,000000
36,249933	1,000	141.429,000000
36,266600	1,000	140.340,000000
36,283267	1,000	139.434,000000
36,299933	1,000	138.591,000000
36,316600	1,000	137.679,000000
36,333267	1,000	136.616,000000
36,349933	1,000	135.425,000000
36,366600	1,000	134.289,000000
36,383267	1,000	133.255,000000
36,399933	1,000	132.189,000000
36,416600	1,000	130.919,000000
36,433267	1,000	129.410,000000
36,449933	1,000	127.729,000000
36,466600	1,000	125.830,000000
36,483267	1,000	123.727,000000
36,499933	1,000	121.457,000000
36,516600	1,000	119.182,000000
36,533267	1,000	117.025,000000
36,549933	1,000	115.010,000000
36,566600	1,000	113.192,000000
36,583267	1,000	111.522,000000
36,599933	1,000	109.782,000000
36,616600	1,000	107.842,000000
36,633267	1,000	105.636,000000
36,649933	1,000	103.139,000000
36,666600	1,000	100.406,000000
36,683267	1,000	97.475,000000
36,699933	1,000	94.600,000000
36,716600	1,000	92.077,000000
36,733267	1,000	90.040,000000
36,749933	1,000	88.514,000000
36,766600	1,000	87.435,000000
36,783267	1,000	86.617,000000
36,799933	1,000	85.808,000000
36,816600	1,000	84.839,000000
36,833267	1,000	83.611,000000
36,849933	1,000	82.046,000000
36,866600	1,000	80.109,000000
36,883267	1,000	77.937,000000
36,899933	1,000	75.736,000000
36,916600	1,000	73.721,000000
36,933267	1,000	71.981,000000
36,949933	1,000	70.408,000000
36,966600	1,000	68.908,000000
36,983267	1,000	67.537,000000
36,999933	1,000	66.336,000000
37,016600	1,000	65.247,000000
37,033267	1,000	64.113,000000
37,049933	1,000	62.870,000000
37,066600	1,000	61.430,000000
37,083267	1,000	59.810,000000
37,099933	1,000	58.144,000000
37,116600	1,000	56.665,000000
37,133267	1,000	55.583,000000
37,149933	1,000	54.961,000000
37,166600	1,000	54.661,000000
37,183267	1,000	54.461,000000
37,199933	1,000	54.161,000000
37,216600	1,000	53.498,000000
37,233267	1,000	52.430,000000
37,249933	1,000	51.045,000000
37,266600	1,000	49.450,000000
37,283267	1,000	47.786,000000
37,299933	1,000	46.250,000000
37,316600	1,000	44.935,000000
37,333267	1,000	43.920,000000
37,349933	1,000	43.237,000000
37,366600	1,000	42.698,000000
37,383267	1,000	42.093,000000
37,399933	1,000	41.318,000000
37,416600	1,000	40.296,000000
37,433267	1,000	39.041,000000
37,449933	1,000	37.644,000000
37,466600	1,000	36.324,000000
37,483267	1,000	35.146,000000
37,499933	1,000	34.040,000000
37,516600	1,000	32.987,000000
37,533267	1,000	32.055,000000
37,549933	1,000	31.367,000000
37,566600	1,000	30.912,000000
37,583267	1,000	30.630,000000
37,599933	1,000	30.479,000000
37,616600	1,000	30.373,000000
37,633267	1,000	30.313,000000
37,649933	1,000	30.291,000000
37,666600	1,000	30.229,000000
37,683267	1,000	30.058,000000
37,699933	1,000	29.812,000000
37,716600	1,000	29.603,000000
37,733267	1,000	29.476,000000
37,749933	1,000	29.378,000000
37,766600	1,000	29.237,000000
37,783267	1,000	29.084,000000
37,799933	1,000	29.044,000000
37,816600	1,000	29.197,000000
37,833267	1,000	29.474,000000
37,849933	1,000	29.750,000000
37,866600	1,000	29.919,000000
37,883267	1,000	29.896,000000
37,899933	1,000	29.602,000000
37,916600	1,000	29.102,000000
37,933267	1,000	28.607,000000
37,949933	1,000	28.249,000000
37,966600	1,000	27.993,000000
37,983267	1,000	27.735,000000
37,999933	1,000	27.450,000000
38,016600	1,000	27.100,000000
38,033267	1,000	26.565,000000
38,049933	1,000	25.874,000000
38,066600	1,000	25.214,000000
38,083267	1,000	24.643,000000
38,099933	1,000	24.157,000000
38,116600	1,000	23.726,000000
38,133267	1,000	23.355,000000
38,149933	1,000	23.141,000000
38,166600	1,000	23.145,000000
38,183267	1,000	23.370,000000
38,199933	1,000	23.804,000000
38,216600	1,000	24.304,000000
38,233267	1,000	24.620,000000
38,249933	1,000	24.566,000000
38,266600	1,000	24.101,000000
38,283267	1,000	23.335,000000
38,299933	1,000	22.438,000000
38,316600	1,000	21.632,000000
38,333267	1,000	21.024,000000
38,349933	1,000	20.595,000000
38,366600	1,000	20.374,000000
38,383267	1,000	20.323,000000
38,399933	1,000	20.324,000000
38,416600	1,000	20.235,000000
38,433267	1,000	19.976,000000
38,449933	1,000	19.416,000000
38,466600	1,000	18.691,000000
38,483267	1,000	18.029,000000
38,499933	1,000	17.506,000000
38,516600	1,000	17.087,000000
38,533267	1,000	16.774,000000
38,549933	1,000	16.569,000000
38,566600	1,000	16.443,000000
38,583267	1,000	16.346,000000
38,599933	1,000	16.296,000000
38,616600	1,000	16.329,000000
38,633267	1,000	16.419,000000
38,649933	1,000	16.479,000000
38,666600	1,000	16.445,000000
38,683267	1,000	16.356,000000
38,699933	1,000	16.206,000000
38,716600	1,000	16.028,000000
38,733267	1,000	15.754,000000
38,749933	1,000	15.251,000000
38,766600	1,000	14.513,000000
38,783267	1,000	13.816,000000
38,799933	1,000	13.423,000000
38,816600	1,000	13.343,000000
38,833267	1,000	13.465,000000
38,849933	1,000	13.691,000000
38,866600	1,000	13.857,000000
38,883267	1,000	13.789,000000
38,899933	1,000	13.536,000000
38,916600	1,000	13.164,000000
38,933267	1,000	12.702,000000
38,949933	1,000	12.210,000000
38,966600	1,000	11.810,000000
38,983267	1,000	11.520,000000
38,999933	1,000	11.293,000000
39,016600	1,000	11.129,000000
39,033267	1,000	11.002,000000
39,049933	1,000	10.944,000000
39,066600	1,000	10.944,000000
39,083267	1,000	11.016,000000
39,099933	1,000	11.090,000000
39,116600	1,000	10.983,000000
39,133267	1,000	10.703,000000
39,149933	1,000	10.471,000000
39,166600	1,000	10.450,000000
39,183267	1,000	10.592,000000
39,199933	1,000	10.822,000000
39,216600	1,000	11.085,000000
39,233267	1,000	11.394,000000
39,249933	1,000	11.784,000000
39,266600	1,000	12.286,000000
39,283267	1,000	12.859,000000
39,299933	1,000	13.470,000000
39,316600	1,000	14.001,000000
39,333267	1,000	14.269,000000
39,349933	1,000	14.203,000000
39,366600	1,000	13.880,000000
39,383267	1,000	13.476,000000
39,399933	1,000	13.132,000000
39,416600	1,000	12.825,000000
39,433267	1,000	12.543,000000
39,449933	1,000	12.206,000000
39,466600	1,000	11.796,000000
39,483267	1,000	11.432,000000
39,499933	1,000	11.120,000000
39,516600	1,000	10.757,000000
39,533267	1,000	10.189,000000
39,549933	1,000	9.369,000000
39,566600	1,000	8.451,000000
39,583267	1,000	7.630,000000
39,599933	1,000	7.030,000000
39,616600	1,000	6.667,000000
39,633267	1,000	6.583,000000
39,649933	1,000	6.750,000000
39,666600	1,000	7.007,000000
39,683267	1,000	7.105,000000
39,699933	1,000	6.865,000000
39,716600	1,000	6.299,000000
39,733267	1,000	5.631,000000
39,749933	1,000	5.138,000000
39,766600	1,000	5.020,000000
39,783267	1,000	5.321,000000
39,799933	1,000	5.900,000000
39,816600	1,000	6.562,000000
39,833267	1,000	7.080,000000
39,849933	1,000	7.271,000000
39,866600	1,000	7.152,000000
39,883267	1,000	6.852,000000
39,899933	1,000	6.488,000000
39,916600	1,000	6.113,000000
39,933267	1,000	5.777,000000
39,949933	1,000	5.489,000000
39,966600	1,000	5.242,000000
39,983267	1,000	5.006,000000
39,999933	1,000	4.785,000000
40,016600	1,000	4.630,000000
40,033267	1,000	4.525,000000
40,049933	1,000	4.450,000000
40,066600	1,000	4.481,000000
40,083267	1,000	4.625,000000
40,099933	1,000	4.826,000000
40,116600	1,000	5.015,000000
40,133267	1,000	5.164,000000
40,149933	1,000	5.292,000000
40,166600	1,000	5.455,000000
40,183267	1,000	5.732,000000
40,199933	1,000	6.126,000000
40,216600	1,000	6.446,000000
40,233267	1,000	6.538,000000
40,249933	1,000	6.301,000000
40,266600	1,000	5.750,000000
40,283267	1,000	5.054,000000
40,299933	1,000	4.434,000000
40,316600	1,000	4.142,000000
40,333267	1,000	4.287,000000
40,349933	1,000	4.857,000000
40,366600	1,000	5.681,000000
40,383267	1,000	6.449,000000
40,399933	1,000	6.997,000000
40,416600	1,000	7.264,000000
40,433267	1,000	7.206,000000
40,449933	1,000	6.830,000000
40,466600	1,000	6.224,000000
40,483267	1,000	5.517,000000
40,499933	1,000	4.815,000000
40,516600	1,000	4.081,000000
40,533267	1,000	3.363,000000
40,549933	1,000	2.828,000000
40,566600	1,000	2.634,000000
40,583267	1,000	2.811,000000
40,599933	1,000	3.297,000000
40,616600	1,000	3.995,000000
40,633267	1,000	4.704,000000
40,649933	1,000	5.217,000000
40,666600	1,000	5.398,000000
40,683267	1,000	5.279,000000
40,699933	1,000	4.898,000000
40,716600	1,000	4.282,000000
40,733267	1,000	3.503,000000
40,749933	1,000	2.596,000000
40,766600	1,000	1.647,000000
40,783267	1,000	735,000000
40,799933	1,000	-133,000000
40,816600	1,000	-895,000000
40,833267	1,000	-1.472,000000
40,849933	1,000	-1.795,000000
40,866600	1,000	-1.887,000000
40,883267	1,000	-1.814,000000
40,899933	1,000	-1.563,000000
40,916600	1,000	-1.136,000000
40,933267	1,000	-586,000000
40,949933	1,000	-20,000000
40,966600	1,000	533,000000
40,983267	1,000	995,000000
40,999933	1,000	1.251,000000
41,016600	1,000	1.302,000000
41,033267	1,000	1.115,000000
41,049933	1,000	857,000000
41,066600	1,000	820,000000
41,083267	1,000	1.083,000000
41,099933	1,000	1.580,000000
41,116600	1,000	2.181,000000
41,133267	1,000	2.667,000000
41,149933	1,000	2.949,000000
41,166600	1,000	3.167,000000
41,183267	1,000	3.447,000000
41,199933	1,000	3.735,000000
41,216600	1,000	3.901,000000
41,233267	1,000	3.924,000000
41,249933	1,000	3.727,000000
41,266600	1,000	3.340,000000
41,283267	1,000	2.900,000000
41,299933	1,000	2.599,000000
41,316600	1,000	2.577,000000
41,333267	1,000	2.809,000000
41,349933	1,000	3.138,000000
41,366600	1,000	3.488,000000
41,383267	1,000	3.726,000000
41,399933	1,000	3.767,000000
41,416600	1,000	3.699,000000
41,433267	1,000	3.589,000000
41,449933	1,000	3.504,000000
41,466600	1,000	3.406,000000
41,483267	1,000	3.251,000000
41,499933	1,000	3.047,000000
41,516600	1,000	2.794,000000
41,533267	1,000	2.421,000000
41,549933	1,000	1.862,000000
41,566600	1,000	1.257,000000
41,583267	1,000	713,000000
41,599933	1,000	310,000000
41,616600	1,000	91,000000
41,633267	1,000	64,000000
41,649933	1,000	258,000000
41,666600	1,000	661,000000
41,683267	1,000	1.198,000000
41,699933	1,000	1.717,000000
41,716600	1,000	2.145,000000
41,733267	1,000	2.454,000000
41,749933	1,000	2.668,000000
41,766600	1,000	2.754,000000
41,783267	1,000	2.602,000000
41,799933	1,000	2.154,000000
41,816600	1,000	1.448,000000
41,833267	1,000	549,000000
41,849933	1,000	-422,000000
41,866600	1,000	-1.291,000000
41,883267	1,000	-1.989,000000
41,899933	1,000	-2.481,000000
41,916600	1,000	-2.617,000000
41,933267	1,000	-2.373,000000
41,949933	1,000	-1.921,000000
41,966600	1,000	-1.420,000000
41,983267	1,000	-903,000000
41,999933	1,000	-390,000000
42,016600	1,000	89,000000
42,033267	1,000	530,000000
42,049933	1,000	974,000000
42,066600	1,000	1.441,000000
42,083267	1,000	1.910,000000
42,099933	1,000	2.391,000000
42,116600	1,000	2.838,000000
42,133267	1,000	3.310,000000
42,149933	1,000	3.879,000000
42,166600	1,000	4.558,000000
42,183267	1,000	5.298,000000
42,199933	1,000	6.015,000000
42,216600	1,000	6.525,000000
42,233267	1,000	6.617,000000
42,249933	1,000	6.172,000000
42,266600	1,000	5.233,000000
42,283267	1,000	4.140,000000
42,299933	1,000	3.232,000000
42,316600	1,000	2.587,000000
42,333267	1,000	2.045,000000
42,349933	1,000	1.431,000000
42,366600	1,000	632,000000
42,383267	1,000	-332,000000
42,399933	1,000	-1.271,000000
42,416600	1,000	-2.086,000000
42,433267	1,000	-2.688,000000
42,449933	1,000	-2.969,000000
42,466600	1,000	-2.937,000000
42,483267	1,000	-2.742,000000
42,499933	1,000	-2.483,000000
42,516600	1,000	-2.159,000000
42,533267	1,000	-1.840,000000
42,549933	1,000	-1.498,000000
42,566600	1,000	-1.063,000000
42,583267	1,000	-544,000000
42,599933	1,000	-73,000000
42,616600	1,000	187,000000
42,633267	1,000	144,000000
42,649933	1,000	-132,000000
42,666600	1,000	-473,000000
42,683267	1,000	-782,000000
42,699933	1,000	-1.045,000000
42,716600	1,000	-1.216,000000
42,733267	1,000	-1.275,000000
42,749933	1,000	-1.164,000000
42,766600	1,000	-894,000000
42,783267	1,000	-549,000000
42,799933	1,000	-221,000000
42,816600	1,000	16,000000
42,833267	1,000	130,000000
42,849933	1,000	143,000000
42,866600	1,000	106,000000
42,883267	1,000	163,000000
42,899933	1,000	338,000000
42,916600	1,000	525,000000
42,933267	1,000	704,000000
42,949933	1,000	871,000000
42,966600	1,000	1.006,000000
42,983267	1,000	1.182,000000
42,999933	1,000	1.445,000000
43,016600	1,000	1.723,000000
43,033267	1,000	1.880,000000
43,049933	1,000	1.871,000000
43,066600	1,000	1.774,000000
43,083267	1,000	1.613,000000
43,099933	1,000	1.381,000000
43,116600	1,000	1.121,000000
