File Path	chrom://5-para-12-0017/ChromeleonLocal/Instrument Data/UHPLC_2/analysis 2016/Albert2016/20161202 BMS 1 Avert plate 10.seq/356.smp/Emission_1.channel/Emission_1.chm
Channel	Emission_1

Injection Information:
Data Vault	ChromeleonLocal
Injection	Blank
Injection Number	67
Position	R3
Comment	
Processing Method	Integrate IgG 75-63%
Instrument Method	2015_deepwell_IgGNglycome 600 ulmin 75%-63% 20160815_2AA_R3
Type	Blank
Status	Finished
Injection Date	5-12-2016
Injection Time	23:53:45
Injection Volume (µl)	25,000
Dilution Factor	1,0000
Weight	1,0000

Raw Data Information:
Time Min. (min)	0,016683
Time Max. (min)	43,100017
Data Points	2586
Detector	FLD
Exporting Data System	Chromeleon 7.1.2.1478
Operator	
Signal Quantity	
Signal Unit	counts
Signal Min.	-27.084.696,000000
Signal Max.	1.475.589,000000
Channel	Emission_1
Driver Name	FLD3000.dll
Channel Type	Evaluation
Min. Step (s)	1,000
Max. Step (s)	1,000
Average Step (s)	1,000

Signal Parameter Information:
Signal Info	250 nm /425 nm

Raw Data:
Time (min)	Step (s)	Value (counts)
-1,01251312064	0,0
-0,994229117834	0,0
-0,975946257723	0,0
-0,957665637153	0,0
-0,939385062361	-357,0
-0,921105630262	-1778,0
-0,902828437499	-3415,0
-0,88455129072	-5067,0
-0,866275286634	-6454,0
-0,848001521677	-6780,0
-0,82972780291	-6557,0
-0,811455226837	-6952,0
-0,793184889688	-8567,0
-0,774914598933	-12171,0
-0,756645450873	-17684,0
-0,73837854153	-24741,0
-0,720111678789	-33995,0
-0,701845958741	-45103,0
-0,683582477205	-54845,0
-0,665319042476	-60102,0
-0,64705675044	-59351,0
-0,628796696712	-52851,0
-0,610536689995	-42584,0
-0,592277825972	-31605,0
-0,57402120005	-22808,0
-0,555764621347	-18404,0
-0,537509185336	-19227,0
-0,519255987221	-23272,0
-0,50100283653	-27756,0
-0,482750828533	-31077,0
-0,464501058225	-32429,0
-0,446251335546	-32180,0
-0,428002755561	-30872,0
-0,40975641306	-28587,0
-0,391510118394	-26014,0
-0,373264966421	-24181,0
-0,355022051727	-22566,0
-0,336779185074	-19031,0
-0,318537461114	-12299,0
-0,300297974226	-2954,0
-0,282058535586	6441,0
-0,263820239638	13463,0
-0,245584180558	17940,0
-0,22734816993	19315,0
-0,209113301995	16957,0
-0,190880670722	10875,0
-0,172648088106	2735,0
-0,154416648184	-5384,0
-0,136187444717	-11851,0
-0,117958290114	-15690,0
-0,0997302782049	-16057,0
-0,0815045025452	-13129,0
-0,0632787759547	-9051,0
-0,0450541920579	-5570,0
-0,0268318442052	-2364,0
-0,00860954562725	1013,0
0,00961161025694	4026,0
0,0278305303028	5965,0
0,0460494008681	5743,0
0,0642671287397	2628,0
0,0824826209786	-1269,0
0,100698063531	-4639,0
0,11891236339	-7029,0
0,137124427822	-7921,0
0,155336442362	-7369,0
0,173547314209	-6519,0
0,191755950834	-7588,0
0,209964537361	-10445,0
0,228171981195	-12023,0
0,246377190013	-10422,0
0,264582348528	-7160,0
0,282786364349	-5202,0
0,300988145361	-6578,0
0,319189875863	-12387,0
0,337390463672	-20799,0
0,355588816876	-29715,0
0,373787119366	-37839,0
0,391984279162	-45116,0
0,410179204559	-52150,0
0,428374079036	-58746,0
0,44656781082	-64907,0
0,46475930841	-70967,0
0,482950754875	-75933,0
0,501141058646	-80535,0
0,519329128429	-87081,0
0,537517146881	-95860,0
0,555704022639	-103993,0
0,573888664616	-107523,0
0,592073255055	-106366,0
0,610256702801	-102028,0
0,628437916971	-95315,0
0,646619079397	-87623,0
0,66479909913	-80156,0
0,682976885493	-73347,0
0,701154619907	-66772,0
0,719331211628	-59195,0
0,737505570184	-49440,0
0,755679876585	-39146,0
0,773853040293	-30391,0
0,792023971042	-24150,0
0,810194849431	-20780,0
0,828364585126	-21584,0
0,846532088068	-26597,0
0,864699538445	-34668,0
0,882865846127	-44262,0
0,901029921262	-53375,0
0,919193943626	-60506,0
0,937356823296	-64517,0
0,955517470625	-65491,0
0,973678064976	-64316,0
0,991837516633	-61373,0
1,00999473615	-56710,0
1,02815190249	-50146,0
1,04630792614	-42244,0
1,06446171785	-34959,0
1,08261545618	-29825,0
1,10076805181	-28285,0
1,11891841572	-30656,0
1,13706872603	-37363,0
1,15521789365	-47542,0
1,17336482975	-59324,0
1,19151171205	-71493,0
1,20965745166	-83345,0
1,22780095995	-93784,0
1,24594441424	-101315,0
1,26408672584	-104000,0
1,28222680632	-101160,0
1,3003668326	-92964,0
1,31850571618	-79609,0
1,33664236886	-61528,0
1,35477896712	-39163,0
1,37291442269	-13353,0
1,39104764756	15551,0
1,40918081782	47259,0
1,42731284537	82708,0
1,44544264244	123235,0
1,46357238468	170413,0
1,48170098422	224213,0
1,49982735348	283872,0
1,5179536677	348223,0
1,53607883924	415229,0
1,55420178069	482390,0
1,5723246669	548680,0
1,59044641042	614140,0
1,60856592406	680237,0
1,62668538226	749603,0
1,64480369777	820854,0
1,66291978361	891245,0
1,6810358138	958811,0
1,69915070129	1022384,0
1,71726335932	1082679,0
1,7353759615	1143168,0
1,75348742098	1206380,0
1,7715966512	1270941,0
1,78970582536	1332651,0
1,80781385683	1387205,0
1,82591965925	1431085,0
1,8440254054	1461523,0
1,86213000886	1475589,0
1,88023238347	1469829,0
1,8983347016	1441280,0
1,91643587705	1387396,0
1,93453482385	1308941,0
1,95263371397	1207638,0
1,97073146141	1085804,0
1,9888269804	946130,0
2,00692244251	792057,0
2,02501676193	623968,0
2,04310885312	440591,0
2,06120088722	243129,0
2,07929177863	35004,0
2,09738044201	-178965,0
2,1154690481	-394079,0
2,13355651149	-606292,0
2,15164174707	-812906,0
2,16972692514	-1012110,0
2,18781096052	-1205328,0
2,20589276829	-1394196,0
2,22397451835	-1579120,0
2,24205512572	-1758695,0
2,26013350568	-1929929,0
2,27821182773	-2091016,0
2,29628900708	-2242399,0
2,31436395924	-2384966,0
2,33243885328	-2518240,0
2,35051260462	-2642343,0
2,36858412897	-2759736,0
2,38665559499	-2872255,0
2,40472591832	-2980928,0
2,42279401486	-3087268,0
2,44086205287	-3191429,0
2,45892894819	-3291903,0
2,47699361692	-3388019,0
2,49505822692	-3478481,0
2,51312169423	-3563389,0
2,53118293516	-3644551,0
2,54924411714	-3722986,0
2,56730415643	-3799549,0
2,58536196955	-3874278,0
2,60341972353	-3946663,0
2,62147633481	-4015988,0
2,63953072012	-4082100,0
2,65758504608	-4144124,0
2,67563822935	-4202624,0
2,69368918686	-4258876,0
2,7117400848	-4314010,0
2,72978984006	-4367758,0
2,74783736976	-4417814,0
2,76588483969	-4462571,0
2,78393116693	-4501139,0
2,80197526883	-4533628,0
2,82001931075	-4560490,0
2,83806220998	-4583673,0
2,85610288407	-4605084,0
2,87414349798	-4626552,0
2,89218296919	-4650734,0
2,91022021547	-4679194,0
2,92825740137	-4710507,0
2,94629344457	-4742546,0
2,96432726305	-4773213,0
2,98236102093	-4800345,0
3,00039363612	-4823578,0
3,01842402679	-4845343,0
3,03645435666	-4868176,0
3,05448354384	-4891840,0
3,0725105067	-4917081,0
3,09053740856	-4943718,0
3,10856316772	-4969544,0
3,12658670278	-4991578,0
3,14461017662	-5009795,0
3,16263250778	-5027280,0
3,18065261502	-5046163,0
3,19867266086	-5066139,0
3,216691564	-5084585,0
3,23470824343	-5098912,0
3,25272486126	-5109560,0
3,27074033638	-5118702,0
3,28875358802	-5127017,0
3,30676677782	-5134067,0
3,32477882494	-5140782,0
3,34278864876	-5147842,0
3,36079841056	-5156154,0
3,37880702966	-5165857,0
3,39681342568	-5177999,0
3,41481975947	-5192150,0
3,43282495056	-5206581,0
3,45082791877	-5219140,0
3,46883082454	-5230944,0
3,48683258762	-5243562,0
3,50483212802	-5257229,0
3,52283160578	-5270170,0
3,54082994084	-5281314,0
3,55882605344	-5289723,0
3,57682210319	-5293854,0
3,59481701024	-5293871,0
3,61280969503	-5291778,0
3,63080231676	-5290551,0
3,6487937958	-5291147,0
3,66678305279	-5294264,0
3,68477224651	-5300364,0
3,70276029753	-5308926,0
3,72074612671	-5318353,0
3,73873189242	-5328465,0
3,75671651543	-5338787,0
3,7746989168	-5348431,0
3,7926812545	-5356483,0
3,8106624495	-5362412,0
3,82864142306	-5366882,0
3,84662033275	-5371777,0
3,86459809974	-5377867,0
3,88257364549	-5384055,0
3,90054912716	-5388435,0
3,91852346614	-5390083,0
3,93649558409	-5388487,0
3,95446763774	-5383390,0
3,97243854871	-5375586,0
3,99040723885	-5367084,0
4,0083758645	-5361486,0
4,02634334745	-5361202,0
4,04430860978	-5367388,0
4,06227380741	-5378749,0
4,08023786235	-5392591,0
4,09819969688	-5405987,0
4,1161614665	-5415684,0
4,13412209343	-5420180,0
4,15208050015	-5420797,0
4,17003884176	-5419730,0
4,18799604067	-5418869,0
4,20595101958	-5419589,0
4,22390593318	-5422120,0
4,24185970408	-5426799,0
4,25981125519	-5433391,0
4,27776274077	-5440662,0
4,29571308366	-5447714,0
4,31366120696	-5453682,0
4,33160926453	-5457731,0
4,34955617941	-5460232,0
4,3675008749	-5461156,0
4,38544550446	-5461412,0
4,40338899132	-5462209,0
4,421330259	-5463779,0
4,43927146055	-5466729,0
4,4572115194	-5472281,0
4,47514935928	-5480245,0
4,49308713281	-5489574,0
4,51102376365	-5498255,0
4,52895817572	-5505405,0
4,54689252124	-5511677,0
4,56482572407	-5517391,0
4,58275670833	-5523301,0
4,60068762584	-5529766,0
4,61861740065	-5536468,0
4,63654495711	-5542539,0
4,65447244661	-5548446,0
4,67239879341	-5554917,0
4,69032292206	-5561870,0
4,70824698354	-5570135,0
4,72616990233	-5579602,0
4,74409060317	-5588437,0
4,76201123664	-5596044,0
4,77993072742	-5603214,0
4,79784800045	-5609580,0
4,81576520591	-5614420,0
4,83368126867	-5617256,0
4,8515951139	-5617859,0
4,86950889135	-5616261,0
4,8874215261	-5611336,0
4,90533194352	-5601999,0
4,92324229295	-5589138,0
4,94115149969	-5575494,0
4,95905848931	-5564153,0
4,97696541073	-5557546,0
4,99487118945	-5555870,0
5,01277475126	-5557738,0
5,03067824467	-5561876,0
5,04858059538	-5566456,0
5,06648072938	-5569317,0
5,08438079478	-5570819,0
5,10227971748	-5572984,0
5,12017642367	-5577047,0
5,13807306105	-5582205,0
5,15596855574	-5587016,0
5,17386183413	-5591202,0
5,1917550435	-5596256,0
5,20964711017	-5603151,0
5,22753696076	-5610598,0
5,24542674211	-5616320,0
5,26331538077	-5618617,0
5,28120180355	-5617674,0
5,29908815689	-5615500,0
5,31697336754	-5614316,0
5,33485636251	-5616218,0
5,35273928784	-5622329,0
5,37062107048	-5632930,0
5,38850063764	-5647740,0
5,40638013496	-5665501,0
5,42425848958	-5683838,0
5,44213462894	-5699971,0
5,46001069824	-5711734,0
5,47788562485	-5718003,0
5,4957583364	-5720039,0
5,51363097769	-5719592,0
5,53150247629	-5717868,0
5,54937176003	-5716137,0
5,56724097331	-5715437,0
5,5851090439	-5716820,0
5,60297489983	-5720603,0
5,6208406851	-5725828,0
5,63870532768	-5731980,0
5,6565677558	-5740217,0
5,67443011306	-5752590,0
5,69229132762	-5769069,0
5,71015032794	-5789108,0
5,72800925718	-5811724,0
5,74586704373	-5835281,0
5,76372261624	-5856395,0
5,78157811747	-5872383,0
5,79943247601	-5882179,0
5,81728462071	-5886297,0
5,83513669393	-5884812,0
5,85298762446	-5878020,0
5,87083634135	-5867349,0
5,88868498656	-5855010,0
5,90653248907	-5843600,0
5,92437777816	-5834390,0
5,94222299535	-5828875,0
5,96006706985	-5829153,0
5,97790893114	-5835789,0
5,99575072032	-5847638,0
6,0135913668	-5861205,0
6,03142980028	-5873465,0
6,04926816145	-5884351,0
6,06710537992	-5893772,0
6,08494038559	-5901070,0
6,10277531875	-5906515,0
6,12060910921	-5909553,0
6,13844068707	-5908973,0
6,15627219221	-5904873,0
6,17410255466	-5898273,0
6,19193070472	-5890579,0
6,20975878185	-5884156,0
6,22758571628	-5880648,0
6,24541043853	-5879579,0
6,26323508765	-5879985,0
6,28105859407	-5881547,0
6,29887988852	-5885936,0
6,31670110962	-5894716,0
6,33452118803	-5906419,0
6,35233905467	-5918089,0
6,37015684776	-5927286,0
6,38797349816	-5933310,0
6,40578793699	-5936278,0
6,42360230207	-5937702,0
6,44141552445	-5940398,0
6,45922653547	-5944724,0
6,47703747254	-5949492,0
6,49484726691	-5954242,0
6,51265485013	-5958903,0
6,53046235918	-5963228,0
6,54826872554	-5966982,0
6,56607288095	-5969578,0
6,58387696199	-5970641,0
6,60167990034	-5970636,0
6,61948062794	-5969999,0
6,63728128097	-5968487,0
6,65508079131	-5965888,0
6,6728780911	-5963947,0
6,69067531612	-5964027,0
6,70847139844	-5965611,0
6,72626527043	-5968673,0
6,74405906743	-5973143,0
6,76185172174	-5978527,0
6,77964216592	-5985078,0
6,79743253491	-5993208,0
6,81522176121	-6001787,0
6,83300877758	-6008551,0
6,85079571856	-6012626,0
6,86858151685	-6013532,0
6,88636510541	-6011721,0
6,90414861838	-6008026,0
6,92193098865	-6002870,0
6,93971114941	-5997636,0
6,95749123436	-5993509,0
6,97527017662	-5991696,0
6,99304690958	-5991895,0
7,01082356652	-5993221,0
7,02859908076	-5995977,0
7,04637238591	-6002201,0
7,06414561484	-6012820,0
7,08191770107	-6026597,0
7,09968757841	-6042929,0
7,11745737933	-6060655,0
7,13522603755	-6076737,0
7,15299248708	-6089654,0
7,17075885998	-6098052,0
7,18852409019	-6102028,0
7,20628711192	-6103125,0
7,22405005681	-6102369,0
7,241811859	-6100516,0
7,25957145292	-6098514,0
7,2773309698	-6097808,0
7,29508934398	-6099587,0
7,3128455101	-6104405,0
7,33060159896	-6112935,0
7,34835654513	-6124199,0
7,36610928344	-6136502,0
7,38386194429	-6148294,0
7,40161346245	-6158893,0
7,41936277294	-6167537,0
7,43711200578	-6173206,0
7,45486009593	-6174523,0
7,47260597862	-6171160,0
7,49035178345	-6163714,0
7,50809644558	-6154408,0
7,52583890047	-6146227,0
7,54358127728	-6141368,0
7,5613225114	-6140693,0
7,57906153848	-6143584,0
7,59680048728	-6149874,0
7,61453829339	-6159110,0
7,63227389266	-6169242,0
7,65000941345	-6177855,0
7,66774379154	-6184898,0
7,68547596301	-6191155,0
7,70320805578	-6196840,0
7,72093900587	-6201102,0
7,73866774952	-6204206,0
7,75639641429	-6206591,0
7,77412393636	-6208909,0
7,79184925221	-6211827,0
7,80957448896	-6214961,0
7,82729858302	-6217335,0
7,84502047106	-6219008,0
7,8627422798	-6220871,0
7,88046294584	-6223854,0
7,89818140608	-6227859,0
7,9158997868	-6232197,0
7,93361702484	-6234928,0
7,95133205727	-6236641,0
7,96904700998	-6239572,0
7,98676082	-6244589,0
8,00447242462	-6251271,0
8,02218394932	-6259109,0
8,03989433133	-6267822,0
8,05760250815	-6276996,0
8,07531060483	-6285943,0
8,09301755883	-6293913,0
8,11072230784	-6299990,0
8,12842697651	-6304494,0
8,14613050249	-6309324,0
8,1638318237	-6314872,0
8,18153306436	-6319437,0
8,19923316233	-6322045,0
8,21693105572	-6322407,0
8,23462886837	-6320384,0
8,25232553833	-6317160,0
8,27002000392	-6314186,0
8,28771438856	-6312642,0
8,3054076305	-6312738,0
8,32309866828	-6313927,0
8,34078962491	-6316556,0
8,35847943884	-6320891,0
8,37616704881	-6325920,0
8,39385457742	-6330709,0
8,41154096334	-6336560,0
8,42922514551	-6344099,0
8,44690924611	-6352691,0
8,46459220402	-6359650,0
8,48227295838	-6363653,0
8,49995363096	-6364786,0
8,51763316086	-6363902,0
8,53531048741	-6362433,0
8,55298773199	-6362529,0
8,57066383387	-6365435,0
8,58833773261	-6371311,0
8,60601154918	-6379568,0
8,62368422304	-6389856,0
8,64135469398	-6402518,0
8,65902508253	-6415354,0
8,67669432839	-6425644,0
8,69436137152	-6431940,0
8,71202833206	-6434619,0
8,7296941499	-6434475,0
8,74735776523	-6433909,0
8,76502129775	-6434619,0
8,78268368758	-6437381,0
8,8003438751	-6442589,0
8,81800397961	-6449699,0
8,83566294143	-6457299,0
8,85331970114	-6464026,0
8,87097637764	-6468942,0
8,88863191145	-6471691,0
8,90628524335	-6472594,0
8,92393849184	-6472974,0
8,94159059763	-6474477,0
8,95924050173	-6478139,0
8,9768903222	-6483773,0
8,99453899999	-6489738,0
9,01218547628	-6495482,0
9,02983186874	-6501449,0
9,04747711851	-6506824,0
9,06512016699	-6509964,0
9,08276313144	-6509985,0
9,10040495319	-6507958,0
9,11804457387	-6505470,0
9,13568411031	-6503533,0
9,15332250405	-6503438,0
9,17095869692	-6505706,0
9,18859480534	-6510349,0
9,20622977107	-6516851,0
9,22386253614	-6524354,0
9,24149521655	-6531993,0
9,25912675427	-6538516,0
9,27675609152	-6542075,0
9,29438534392	-6541720,0
9,31201345363	-6536578,0
9,32963936307	-6527123,0
9,34726518746	-6516164,0
9,36488986915	-6508113,0
9,38251235079	-6504477,0
9,40013474717	-6504682,0
9,41775600085	-6508420,0
9,43537505468	-6516119,0
9,45299402304	-6526478,0
9,47061184871	-6537614,0
9,48822747474	-6548354,0
9,50584301509	-6557665,0
9,52345741274	-6564136,0
9,54106961096	-6567471,0
9,5586817233	-6569055,0
9,57629269294	-6572006,0
9,59390146336	-6576787,0
9,61151014768	-6582432,0
9,62911768931	-6588784,0
9,64672303192	-6595704,0
9,66432828823	-6603638,0
9,68193240184	-6613488,0
9,69953431664	-6624493,0
9,71713614494	-6634664,0
9,73473683055	-6643170,0
9,75233531754	-6649619,0
9,76993371783	-6653256,0
9,78753097542	-6653346,0
9,8051260346	-6650833,0
9,82272100688	-6648162,0
9,84031483646	-6647188,0
9,85790646784	-6647279,0
9,8754980121	-6648111,0
9,89308841366	-6649367,0
9,91067661723	-6651536,0
9,92826473348	-6654811,0
9,94585170704	-6659581,0
9,9634364828	-6664785,0
9,98102117104	-6668733,0
9,99860471658	-6671285,0
10,0161860645	-6672582,0
10,0337673248	-6673938,0
10,0513474423	-6676192,0
10,0689253624	-6678803,0
10,0865031947	-6681352,0
10,1040798842	-6684588,0
10,1216543765	-6689402,0
10,1392287807	-6695691,0
10,1568020422	-6702285,0
10,1743731068	-6708273,0
10,1919440829	-6712818,0
10,2095139164	-6715920,0
10,2270815532	-6717207,0
10,2446491013	-6716959,0
10,2622155068	-6715676,0
10,2797797157	-6714590,0
10,2973438359	-6715560,0
10,3149068134	-6719754,0
10,3324675945	-6727436,0
10,3500282866	-6738010,0
10,3675878361	-6748884,0
10,3851451894	-6757694,0
10,4027024535	-6763862,0
10,420258575	-6769115,0
10,4378125005	-6774079,0
10,4553663366	-6778081,0
10,47291903	-6780997,0
10,4904695277	-6782733,0
10,5080199358	-6783431,0
10,5255692012	-6784757,0
10,5431162711	-6788314,0
10,5606632512	-6795109,0
10,5782090886	-6805018,0
10,5957527307	-6815746,0
10,6132962828	-6823876,0
10,6308386922	-6828161,0
10,6483789065	-6829981,0
10,6659190305	-6831543,0
10,6834580119	-6834823,0
10,7009947984	-6838689,0
10,7185314944	-6842155,0
10,7360670478	-6845115,0
10,7536004065	-6847184,0
10,7711336745	-6846944,0
10,7886657999	-6845655,0
10,8061957307	-6845705,0
10,8237255707	-6847047,0
10,8412542681	-6849027,0
10,8587807711	-6850776,0
10,8763071832	-6851584,0
10,8938324525	-6852606,0
10,9113555277	-6853825,0
10,9288785117	-6855277,0
10,946400353	-6856823,0
10,9639200005	-6858641,0
10,9814395565	-6860299,0
10,9989579698	-6860772,0
11,0164741894	-6860441,0
11,0339903174	-6860099,0
11,0515053027	-6861265,0
11,0690180945	-6864528,0
11,0865307945	-6869905,0
11,1040423517	-6876035,0
11,1215517158	-6881624,0
11,1390609877	-6886012,0
11,156569117	-6889730,0
11,1740750532	-6893693,0
11,1915808971	-6897871,0
11,2090855984	-6901701,0
11,2265881068	-6904179,0
11,2440905227	-6905234,0
11,261591796	-6905889,0
11,2790908766	-6906645,0
11,2965898645	-6907196,0
11,3140877097	-6909015,0
11,3315833625	-6912721,0
11,3490789224	-6918068,0
11,3665733396	-6924699,0
11,3840655646	-6932176,0
11,4015576965	-6939326,0
11,4190486857	-6943866,0
11,4365374829	-6944867,0
11,4540261867	-6943953,0
11,4715137479	-6943380,0
11,4889991173	-6943678,0
11,5064843932	-6945029,0
11,5239685263	-6947452,0
11,5414504679	-6950551,0
11,5589323158	-6953494,0
11,5764130209	-6957605,0
11,5938915347	-6964480,0
11,6113699545	-6974701,0
11,6288472317	-6987313,0
11,6463223176	-7001362,0
11,6637973094	-7014616,0
11,6812711586	-7025833,0
11,6987428167	-7035384,0
11,7162143805	-7044827,0
11,7336848017	-7056364,0
11,751153032	-7070139,0
11,7686211678	-7084793,0
11,7860881609	-7098034,0
11,8035529634	-7108933,0
11,8210176712	-7117168,0
11,8384812363	-7123329,0
11,855942611	-7126211,0
11,8734038908	-7125672,0
11,8908640279	-7124120,0
11,9083219748	-7123380,0
11,9257798266	-7124288,0
11,9432365357	-7127503,0
11,9606910548	-7133589,0
11,9781454785	-7142435,0
11,9955987596	-7153013,0
12,0130498509	-7161899,0
12,0305008466	-7167027,0
12,0479506997	-7168562,0
12,0653983632	-7167055,0
12,0828459309	-7163442,0
12,1002923559	-7158775,0
12,1177365916	-7155429,0
12,1351807313	-7154147,0
12,1526237284	-7154047,0
12,1700645362	-7155145,0
12,1875052479	-7157202,0
12,204944817	-7160242,0
12,222382197	-7164238,0
12,2398194807	-7167958,0
12,2572556217	-7171699,0
12,274689574	-7174646,0
12,2921234297	-7176115,0
12,3095561426	-7175899,0
12,3269866671	-7174136,0
12,3444170948	-7171094,0
12,3618463797	-7167161,0
12,3792734764	-7163885,0
12,396700476	-7162892,0
12,414126333	-7164866,0
12,4315500019	-7169834,0
12,4489735735	-7177563,0
12,4663960024	-7187112,0
12,4838162435	-7196621,0
12,5012363871	-7204793,0
12,518655388	-7212404,0
12,5360722013	-7219585,0
12,5534889169	-7226277,0
12,5709044898	-7233011,0
12,5883178752	-7238748,0
12,6057311628	-7243297,0
12,6231433077	-7247690,0
12,6405532654	-7252578,0
12,657963125	-7258211,0
12,6753718419	-7264957,0
12,6927783717	-7271355,0
12,7101848032	-7275105,0
12,7275900921	-7275554,0
12,7449931941	-7272516,0
12,7623961977	-7268392,0
12,7797980586	-7264184,0
12,7971977328	-7259774,0
12,8145973083	-7255246,0
12,8319957412	-7252481,0
12,8493919876	-7252536,0
12,8667881351	-7255564,0
12,88418314	-7262318,0
12,9015759585	-7271884,0
12,9189686781	-7281437,0
12,9363602549	-7289843,0
12,9537496457	-7298447,0
12,9711389372	-7306901,0
12,988527086	-7314201,0
13,005913049	-7321318,0
13,0232989125	-7329790,0
13,0406836333	-7340046,0
13,0580661684	-7350572,0
13,0754486039	-7360287,0
13,0928298967	-7367894,0
13,1102090041	-7371645,0
13,1275880116	-7371362,0
13,1449658764	-7368584,0
13,1623415559	-7365794,0
13,1797171354	-7364580,0
13,1970915721	-7365296,0
13,2144638239	-7367331,0
13,2318359753	-7370623,0
13,2492069841	-7374894,0
13,266575808	-7378783,0
13,2839445315	-7382295,0
13,3013121122	-7386467,0
13,3186775083	-7391336,0
13,3360428038	-7397121,0
13,3534069565	-7403590,0
13,3707689248	-7409676,0
13,3881307922	-7415556,0
13,4054915169	-7421977,0
13,4228500575	-7428385,0
13,4402084969	-7434308,0
13,4575657936	-7438475,0
13,4749209063	-7440969,0
13,4922759177	-7443026,0
13,5096297864	-7444710,0
13,5269814713	-7444842,0
13,5443330546	-7442020,0
13,5616834953	-7435623,0
13,5790317524	-7426348,0
13,5963799078	-7415900,0
13,6137269204	-7406757,0
13,6310717497	-7399704,0
13,6484164771	-7395329,0
13,6657600617	-7393150,0
13,6831014632	-7390729,0
13,7004427626	-7388962,0
13,7177829192	-7390050,0
13,7351208929	-7394567,0
13,7524587642	-7403319,0
13,7697954928	-7416459,0
13,7871300387	-7432429,0
13,804464482	-7448618,0
13,8217977826	-7462894,0
13,8391289007	-7474309,0
13,856459916	-7482369,0
13,8737897886	-7488313,0
13,8911174788	-7492623,0
13,9084450661	-7495213,0
13,9257715107	-7495031,0
13,9430957732	-7492827,0
13,9604199324	-7489970,0
13,977742949	-7486347,0
13,9950637837	-7481460,0
14,0123845149	-7475643,0
14,0297041035	-7470488,0
14,0470215103	-7467631,0
14,0643388136	-7467756,0
14,0816549741	-7471457,0
14,0989689532	-7479399,0
14,1162828284	-7491509,0
14,1335955609	-7506323,0
14,1509061122	-7521172,0
14,1682165594	-7533502,0
14,1855258639	-7543215,0
14,2028329873	-7550961,0
14,2201400065	-7557979,0
14,2374458831	-7565504,0
14,2547495787	-7573997,0
14,2720531699	-7583359,0
14,2893556184	-7593502,0
14,3066558862	-7604218,0
14,3239560494	-7615066,0
14,3412550698	-7626172,0
14,3585519098	-7637295,0
14,375848645	-7647045,0
14,3931442375	-7655350,0
14,4104376497	-7663090,0
14,4277309568	-7669695,0
14,4450231213	-7675456,0
14,4623131057	-7680773,0
14,4796029848	-7686104,0
14,4968917213	-7690330,0
14,5141782778	-7692029,0
14,531464729	-7691532,0
14,5487500374	-7690329,0
14,5660331662	-7690369,0
14,5833161893	-7692765,0
14,6005980697	-7697188,0
14,6178777707	-7702640,0
14,6351573658	-7707055,0
14,6524358182	-7708992,0
14,6697120914	-7709353,0
14,6869882585	-7709665,0
14,7042632829	-7709467,0
14,7215361282	-7708729,0
14,7388088673	-7708302,0
14,7560804637	-7708309,0
14,7733498812	-7708656,0
14,7906191923	-7709480,0
14,8078873607	-7710082,0
14,8251533504	-7709651,0
14,8424192335	-7708196,0
14,8596839739	-7706392,0
14,8769465358	-7704624,0
14,8942089908	-7703983,0
14,9114703032	-7705364,0
14,9287294373	-7709289,0
14,9459884643	-7715779,0
14,9632463487	-7724229,0
14,980502055	-7734014,0
14,997757654	-7744562,0
15,0150121103	-7754928,0
15,0322643888	-7764672,0
15,0495165598	-7773803,0
15,0667675882	-7783576,0
15,0840164388	-7793904,0
15,1012651818	-7802934,0
15,1185127821	-7808759,0
15,135758205	-7811715,0
15,15300352	-7813351,0
15,1702476923	-7814578,0
15,1874896874	-7816242,0
15,2047315744	-7819651,0
15,2219723186	-7824069,0
15,2392108859	-7827987,0
15,2564493449	-7831133,0
15,2736866611	-7833743,0
15,2909218006	-7836369,0
15,3081568316	-7839055,0
15,3253907198	-7841603,0
15,3426224315	-7841631,0
15,3598540344	-7837280,0
15,3770844946	-7830134,0
15,3943127785	-7823041,0
15,4115409534	-7819864,0
15,4287679856	-7822937,0
15,4459928417	-7831218,0
15,4632175886	-7841320,0
15,4804411928	-7850252,0
15,497662621	-7855918,0
15,5148839399	-7857395,0
15,5321041162	-7857099,0
15,5493221166	-7858737,0
15,5665400075	-7864730,0
15,5837567557	-7875180,0
15,6009713283	-7889639,0
15,6181857912	-7906167,0
15,6353991113	-7922360,0
15,6526102561	-7935123,0
15,669821291	-7942678,0
15,6870311832	-7946265,0
15,7042389002	-7948050,0
15,721446507	-7949214,0
15,7386529712	-7950564,0
15,7558572604	-7951769,0
15,7730614392	-7953642,0
15,7902644754	-7956058,0
15,8074653368	-7959963,0
15,8246660876	-7965104,0
15,8418656957	-7971062,0
15,8590631293	-7976914,0
15,8762604521	-7981417,0
15,8934566322	-7983749,0
15,910650638	-7982388,0
15,9278445328	-7977120,0
15,9450372849	-7970859,0
15,9622278629	-7966448,0
15,9794183297	-7965752,0
15,9966076538	-7968848,0
16,0137948039	-7975420,0
16,0309818427	-7985462,0
16,0481677388	-7996807,0
16,0653514611	-8007422,0
16,0825350719	-8017111,0
16,09971754	-8025868,0
16,1168978345	-8034084,0
16,1340780173	-8041224,0
16,1512570573	-8046710,0
16,1684339241	-8050667,0
16,1856106788	-8053589,0
16,2027862908	-8056769,0
16,2199597298	-8062085,0
16,2371330565	-8070585,0
16,2543052405	-8081778,0
16,2714752517	-8094404,0
16,2886451504	-8106706,0
16,3058139064	-8119245,0
16,3229804897	-8132518,0
16,3401469604	-8145692,0
16,3573122884	-8156506,0
16,3744754439	-8162568,0
16,3916384866	-8163043,0
16,4088003866	-8158052,0
16,4259601143	-8148138,0
16,443119729	-8136552,0
16,460278201	-8125976,0
16,4774345009	-8118263,0
16,4945906875	-8114846,0
16,5117457315	-8116950,0
16,5288986036	-8123962,0
16,5460513622	-8134912,0
16,5632029782	-8148416,0
16,5803524225	-8161759,0
16,5975017531	-8171737,0
16,614649941	-8176758,0
16,6317959575	-8177544,0
16,6489418601	-8175361,0
16,6660866201	-8171321,0
16,6832292088	-8166977,0
16,7003716834	-8163173,0
16,7175130153	-8160802,0
16,7346521761	-8160640,0
16,7517912227	-8163892,0
16,7689291266	-8169752,0
16,7860648597	-8176448,0
16,8032004783	-8182938,0
16,8203349542	-8188941,0
16,8374672594	-8194822,0
16,85459945	-8200030,0
16,8717304979	-8205490,0
16,8888593753	-8211643,0
16,9059881379	-8217305,0
16,9231157578	-8221694,0
16,9402412074	-8224865,0
16,9573665419	-8226624,0
16,9744907338	-8226546,0
16,9916127556	-8225074,0
17,0087346622	-8223931,0
17,025855426	-8224152,0
17,04297402	-8226154,0
17,0600924986	-8230328,0
17,0772098344	-8238017,0
17,0943250006	-8248328,0
17,1114400511	-8259371,0
17,1285539589	-8269436,0
17,1456656973	-8277651,0
17,1627773198	-8283780,0
17,1798877996	-8288315,0
17,1969961102	-8291144,0
17,2141043047	-8292647,0
17,2312113565	-8294148,0
17,2483162393	-8297329,0
17,2654210058	-8303335,0
17,2825246296	-8311359,0
17,2996260845	-8319985,0
17,316727423	-8327837,0
17,3338276188	-8333414,0
17,350925646	-8336020,0
17,3680235564	-8336338,0
17,3851203242	-8336425,0
17,4022149235	-8338191,0
17,419309406	-8342735,0
17,4364027457	-8349299,0
17,4534939173	-8356389,0
17,4705849717	-8361768,0
17,4876748834	-8363701,0
17,5047626272	-8362029,0
17,5218502536	-8358357,0
17,5389367373	-8355107,0
17,5560210533	-8354280,0
17,5731052517	-8357159,0
17,5901883074	-8362904,0
17,6072691955	-8369174,0
17,6243499659	-8374487,0
17,6414295936	-8378574,0
17,6585070539	-8380927,0
17,6755843963	-8381305,0
17,692660596	-8380238,0
17,7097346285	-8378335,0
17,7268085429	-8376108,0
17,7438813145	-8375519,0
17,7609519193	-8378965,0
17,7780224056	-8385789,0
17,7950917493	-8393913,0
17,8121589262	-8402580,0
17,8292259845	-8412176,0
17,8462919002	-8423678,0
17,8633556493	-8436994,0
17,8804192796	-8450185,0
17,8974817672	-8461379,0
17,9145420885	-8469133,0
17,9316022908	-8473288,0
17,9486613504	-8475415,0
17,9657182439	-8476057,0
17,9827750182	-8475277,0
17,9998306498	-8474351,0
18,0168841155	-8474153,0
18,0339374618	-8475163,0
18,0509896654	-8477863,0
18,0680397033	-8482335,0
18,0850896216	-8486941,0
18,1021383971	-8490381,0
18,1191850072	-8491314,0
18,1362314975	-8490135,0
18,153276845	-8489839,0
18,1703200273	-8491500,0
18,1873630896	-8495771,0
18,2044050091	-8503306,0
18,2214447636	-8513462,0
18,2384843978	-8524673,0
18,2555228893	-8534892,0
18,272559216	-8544207,0
18,2895954222	-8552526,0
18,3066304857	-8558568,0
18,3236633846	-8561604,0
18,3406961628	-8562115,0
18,3577277983	-8560152,0
18,3747572694	-8557176,0
18,3917866196	-8554356,0
18,4088148271	-8551732,0
18,4258408703	-8549673,0
18,4428667925	-8548418,0
18,459891572	-8547961,0
18,4769141874	-8548512,0
18,4939366816	-8550047,0
18,510958033	-8551807,0
18,5279772207	-8553419,0
18,5449962868	-8555026,0
18,5620142103	-8557335,0
18,5790299701	-8561315,0
18,5960456083	-8568141,0
18,6130601037	-8578273,0
18,6300724357	-8591939,0
18,6470846458	-8607585,0
18,6640957133	-8621501,0
18,6811046175	-8630146,0
18,6981133996	-8632892,0
18,715121039	-8630463,0
18,7321265154	-8625320,0
18,7491318695	-8619228,0
18,7661360809	-8614282,0
18,7831381295	-8611377,0
18,8001400556	-8611249,0
18,817140839	-8613926,0
18,8341394598	-8618536,0
18,8511379579	-8624185,0
18,8681353133	-8630554,0
18,8851305063	-8636958,0
18,9021255763	-8642049,0
18,9191195037	-8644059,0
18,9361112689	-8643424,0
18,9531029109	-8641745,0
18,9700934103	-8640367,0
18,9870817476	-8641179,0
19,0040699617	-8644544,0
19,021057033	-8649530,0
19,0380419426	-8654862,0
19,0550267286	-8659620,0
19,072010372	-8663203,0
19,0889918537	-8664879,0
19,1059732117	-8665195,0
19,1229534271	-8665321,0
19,139931481	-8666936,0
19,156909411	-8671610,0
19,1738861983	-8679098,0
19,1908608244	-8687669,0
19,2078353264	-8696541,0
19,2248086857	-8705261,0
19,2417798841	-8712760,0
19,258750958	-8718587,0
19,2757208893	-8723345,0
19,2926886599	-8727460,0
19,3096563058	-8731448,0
19,3266228091	-8735068,0
19,3435871518	-8738694,0
19,3605513698	-8742319,0
19,377514445	-8745819,0
19,3944753599	-8749428,0
19,4114361499	-8753440,0
19,4283957971	-8756877,0
19,4453532842	-8758242,0
19,4623106462	-8756859,0
19,4792668654	-8754622,0
19,4962209247	-8754316,0
19,5131748586	-8757176,0
19,5301276498	-8763152,0
19,5470782813	-8770863,0
19,5640287872	-8777879,0
19,5809781504	-8782962,0
19,5979253541	-8787230,0
19,614872432	-8791534,0
19,6318183672	-8795517,0
19,6487621431	-8798812,0
19,6657057929	-8801610,0
19,6826483001	-8804245,0
19,6995886482	-8807104,0
19,7165288701	-8809800,0
19,7334679492	-8812622,0
19,7504048695	-8814814,0
19,7673416634	-8816840,0
19,7842773145	-8819443,0
19,801210807	-8821714,0
19,8181441728	-8824569,0
19,835076396	-8829808,0
19,8520064606	-8838252,0
19,8689363984	-8849826,0
19,8858651936	-8862880,0
19,9027918304	-8875915,0
19,9197183402	-8887935,0
19,9366437073	-8898443,0
19,9535669164	-8907438,0
19,9704899982	-8915465,0
19,9874119373	-8921617,0
20,0043317185	-8924701,0
20,0212513723	-8925031,0
20,0381698834	-8924387,0
20,0550862368	-8924275,0
20,0720024626	-8926063,0
20,0889175457	-8930639,0
20,1058304713	-8938196,0
20,1227432691	-8947986,0
20,1396549241	-8957697,0
20,1565644219	-8965742,0
20,1734737917	-8971769,0
20,1903820187	-8976902,0
20,2072880887	-8982490,0
20,2241940305	-8988581,0
20,2410988295	-8994141,0
20,2580014717	-8997967,0
20,2749039854	-9000113,0
20,2918053565	-9001250,0
20,3087045709	-9002965,0
20,3256036566	-9006015,0
20,3425015996	-9011089,0
20,3593973862	-9018779,0
20,3762930439	-9027937,0
20,3931875589	-9037107,0
20,4100799177	-9045222,0
20,4269721473	-9051845,0
20,4438632343	-9057608,0
20,4607521653	-9063259,0
20,477640967	-9067602,0
20,494528626	-9068999,0
20,5114141291	-9066915,0
20,5282995028	-9062133,0
20,5451837338	-9056767,0
20,5620658091	-9051877,0
20,5789477548	-9047661,0
20,5958285577	-9045390,0
20,6127072053	-9046053,0
20,6295857229	-9047963,0
20,6464630978	-9050022,0
20,6633383176	-9052430,0
20,6802134072	-9056735,0
20,6970873541	-9062114,0
20,7139591461	-9066357,0
20,7308308077	-9067972,0
20,7477013266	-9067950,0
20,7645696907	-9068036,0
20,7814379243	-9070136,0
20,7983050152	-9074918,0
20,8151699515	-9081086,0
20,8320347571	-9086859,0
20,84889842	-9092074,0
20,8657599285	-9097853,0
20,8826213061	-9106045,0
20,899481541	-9117338,0
20,9163396217	-9130710,0
20,9331975713	-9145057,0
20,9500543781	-9158083,0
20,966909031	-9166668,0
20,9837635526	-9169741,0
21,0006169314	-9168235,0
21,0174681565	-9164117,0
21,0343192501	-9159185,0
21,0511692009	-9155261,0
21,0680169982	-9153357,0
21,0848646637	-9153280,0
21,1017111865	-9154799,0
21,118555556	-9158009,0
21,1353997935	-9163570,0
21,1522428884	-9171784,0
21,16908383	-9181469,0
21,1859246395	-9191166,0
21,2027643063	-9200425,0
21,2196018202	-9209244,0
21,2364392017	-9216663,0
21,2532754405	-9222720,0
21,2701095265	-9227629,0
21,28694348	-9231557,0
21,3037762908	-9234244,0
21,320606949	-9236139,0
21,3374374745	-9237733,0
21,3542668573	-9240230,0
21,3710940877	-9244805,0
21,3879211851	-9250683,0
21,4047471399	-9257499,0
21,4215709425	-9264231,0
21,438394612	-9270783,0
21,4552171387	-9277594,0
21,4720375135	-9284374,0
21,488857755	-9289631,0
21,5056768537	-9291538,0
21,5224938007	-9290605,0
21,5393106141	-9289668,0
21,5561262848	-9289704,0
21,5729398041	-9289552,0
21,5897531895	-9288819,0
21,6065654322	-9287994,0
21,6233755236	-9287883,0
21,640185481	-9288906,0
21,6569942957	-9290339,0
21,6738009592	-9291890,0
21,6906074886	-9294382,0
21,7074128753	-9298537,0
21,7242161111	-9304520,0
21,7410192125	-9313136,0
21,7578211711	-9324478,0
21,7746209791	-9337410,0
21,7914206525	-9350276,0
21,8082191831	-9360752,0
21,8250155633	-9368849,0
21,8418118086	-9374215,0
21,8586069113	-9376851,0
21,8753998636	-9378155,0
21,892192681	-9379473,0
21,9089843556	-9381362,0
21,9257738802	-9384121,0
21,9425632695	-9387180,0
21,9593515161	-9390371,0
21,9761376128	-9393809,0
21,9929235741	-9398074,0
22,0097083927	-9404461,0
22,0264910617	-9413208,0
22,043273595	-9422186,0
22,0600549856	-9429186,0
22,0768342267	-9434107,0
22,093613332	-9437162,0
22,1103912946	-9438840,0
22,1271671079	-9440115,0
22,1439427852	-9442680,0
22,1607173197	-9448561,0
22,1774897053	-9458745,0
22,1942619545	-9472059,0
22,2110330611	-9486355,0
22,2278020188	-9499803,0
22,24457084	-9510842,0
22,2613385186	-9518851,0
22,2781040485	-9524511,0
22,2948694417	-9528583,0
22,3116336922	-9530193,0
22,3283957943	-9528608,0
22,3451577596	-9523953,0
22,3619185821	-9517429,0
22,3786772564	-9511809,0
22,3954357936	-9509229,0
22,4121931881	-9509476,0
22,4289484346	-9512848,0
22,4457035438	-9519388,0
22,4624575102	-9528495,0
22,4792093289	-9539416,0
22,4959610101	-9550063,0
22,5127115486	-9558786,0
22,5294599395	-9565815,0
22,5462081926	-9571906,0
22,5629553031	-9578287,0
22,5797002662	-9585930,0
22,5964450913	-9593192,0
22,6131887738	-9597846,0
22,629930309	-9599888,0
22,6466717062	-9600917,0
22,6634119606	-9601030,0
22,6801500681	-9601165,0
22,6968880372	-9602902,0
22,7136248636	-9606359,0
22,7303595433	-9611931,0
22,7470940844	-9620430,0
22,7638274828	-9631477,0
22,7805587346	-9643868,0
22,7972898477	-9655561,0
22,8140198181	-9664435,0
22,8307476422	-9669450,0
22,8474753273	-9669874,0
22,8642018697	-9666926,0
22,8809262659	-9661690,0
22,897650523	-9655170,0
22,9143736373	-9646826,0
22,9310946058	-9635656,0
22,9478154348	-9624140,0
22,9645351212	-9614968,0
22,9812526618	-9609999,0
22,9979700629	-9610244,0
23,0146863212	-9616004,0
23,031400434	-9625061,0
23,0481144071	-9635008,0
23,0648272374	-9644516,0
23,0815379224	-9654189,0
23,0982484674	-9665717,0
23,1149578698	-9678476,0
23,1316651269	-9689926,0
23,148372244	-9697101,0
23,1650782183	-9697922,0
23,1817820477	-9692269,0
23,1984857367	-9682607,0
23,215188283	-9672332,0
23,2318886845	-9663797,0
23,2485889455	-9658588,0
23,2652880638	-9657718,0
23,2819850376	-9660250,0
23,2986818706	-9664253,0
23,3153775608	-9667689,0
23,3320711068	-9668946,0
23,3487645118	-9666846,0
23,365456774	-9663440,0
23,3821468922	-9661329,0
23,3988368691	-9662832,0
23,4155257034	-9670458,0
23,4322123938	-9684164,0
23,4488989427	-9700926,0
23,4655843489	-9717877,0
23,4822676115	-9734337,0
23,4989507324	-9748738,0
23,5156327106	-9759879,0
23,5323125454	-9767861,0
23,5489922383	-9772553,0
23,5656707885	-9773554,0
23,5823471954	-9771341,0
23,5990234603	-9767128,0
23,6156985825	-9762668,0
23,6323715617	-9759356,0
23,6490443985	-9757642,0
23,6657160927	-9758179,0
23,682385644	-9761780,0
23,6990550529	-9769441,0
23,7157233191	-9780273,0
23,7323894426	-9791441,0
23,7490554235	-9800456,0
23,7657202616	-9805950,0
23,7823829573	-9807823,0
23,7990455102	-9806786,0
23,8157069203	-9804433,0
23,8323661882	-9802351,0
23,8490253131	-9800747,0
23,8656832952	-9799443,0
23,8823391353	-9799881,0
23,8989948321	-9804295,0
23,9156493862	-9813168,0
23,9323017985	-9826194,0
23,9489540673	-9841791,0
23,9656051935	-9858014,0
23,9822541779	-9873581,0
23,9989030187	-9887390,0
24,0155507168	-9898320,0
24,0321962735	-9905980,0
24,0488416863	-9911018,0
24,0654859564	-9914210,0
24,0821280852	-9915972,0
24,09877007	-9917734,0
24,1154109121	-9919723,0
24,1320496131	-9920118,0
24,1486881699	-9919316,0
24,165325584	-9918503,0
24,1819608572	-9918555,0
24,198595986	-9918637,0
24,215229972	-9916850,0
24,2318618175	-9913333,0
24,2484935182	-9910168,0
24,2651240762	-9908534,0
24,2817524939	-9908893,0
24,2983807666	-9911130,0
24,3150078966	-9914430,0
24,3316328864	-9916865,0
24,3482577312	-9918392,0
24,3648814332	-9921248,0
24,3815029952	-9928467,0
24,3981244119	-9941089,0
24,4147446859	-9957458,0
24,4313628201	-9976163,0
24,4479808088	-9994759,0
24,4645976548	-10010522,0
24,4812123612	-10022602,0
24,4978269219	-10031406,0
24,5144403398	-10037578,0
24,5310516184	-10041659,0
24,5476627511	-10044422,0
24,5642727411	-10045572,0
24,5808805918	-10044833,0
24,5974882965	-10042268,0
24,6140948584	-10038789,0
24,6306992814	-10036576,0
24,6473035581	-10037358,0
24,663906692	-10041176,0
24,6805076872	-10047941,0
24,6971085358	-10055981,0
24,7137082417	-10063703,0
24,7303058091	-10072885,0
24,7469032297	-10086278,0
24,7634995076	-10104432,0
24,7800936472	-10124625,0
24,7966876398	-10144953,0
24,8132804897	-10163830,0
24,8298712014	-10177979,0
24,846461766	-10185841,0
24,8630511879	-10187973,0
24,8796384719	-10185307,0
24,8962256084	-10178578,0
24,9128116023	-10169417,0
24,9293954585	-10160657,0
24,945979167	-10153464,0
24,9625617329	-10147713,0
24,9791421612	-10143786,0
24,9957224418	-10141735,0
25,0123015796	-10141641,0
25,0288785801	-10142545,0
25,0454554327	-10144251,0
25,0620311425	-10147163,0
25,0786047152	-10151257,0
25,0951781398	-10157033,0
25,1117504216	-10163991,0
25,1283205665	-10170046,0
25,144890563	-10174457,0
25,1614594168	-10177367,0
25,1780261339	-10178731,0
25,1945927024	-10177903,0
25,2111581282	-10175478,0
25,2277214175	-10173795,0
25,244284558	-10175183,0
25,2608465558	-10179052,0
25,2774064173	-10183209,0
25,2939661298	-10186886,0
25,3105246995	-10188768,0
25,3270811332	-10188674,0
25,3436374177	-10189282,0
25,3601925594	-10194243,0
25,3767455653	-10205201,0
25,3932984218	-10222525,0
25,4098501355	-10244268,0
25,4263997136	-10266873,0
25,442949142	-10287253,0
25,4594974278	-10302765,0
25,476043578	-10312730,0
25,4925895785	-10318144,0
25,5091344362	-10320609,0
25,5256771586	-10321566,0
25,5422197311	-10321783,0
25,5587611608	-10321327,0
25,5753004554	-10321137,0
25,5918395998	-10322014,0
25,6083776015	-10322664,0
25,6249134684	-10321927,0
25,6414491847	-10319488,0
25,6579837584	-10316196,0
25,6745161975	-10312280,0
25,6910484858	-10308562,0
25,7075796315	-10307420,0
25,7241086427	-10310141,0
25,7406375031	-10316443,0
25,7571652208	-10325584,0
25,7736908042	-10336198,0
25,7902162365	-10345563,0
25,8067405262	-10351677,0
25,8232626818	-10354390,0
25,8397846861	-10355423,0
25,8563055478	-10356114,0
25,8728242756	-10356457,0
25,8893428519	-10356825,0
25,9058602855	-10357601,0
25,9223755855	-10358127,0
25,9388907338	-10356603,0
25,9554047395	-10352853,0
25,9719166117	-10346462,0
25,9884283319	-10338569,0
26,0049389095	-10331509,0
26,0214473539	-10327083,0
26,0379556462	-10326384,0
26,0544627958	-10330301,0
26,0709678124	-10338011,0
26,0874726767	-10347552,0
26,1039763982	-10358332,0
26,120477987	-10369226,0
26,1369794233	-10378943,0
26,1534797168	-10388157,0
26,1699778778	-10397847,0
26,186475886	-10406846,0
26,2029727516	-10412938,0
26,2194674848	-10415454,0
26,235962065	-10414691,0
26,2524555025	-10412478,0
26,2689468079	-10410049,0
26,2854379601	-10407314,0
26,3019279696	-10404212,0
26,3184158472	-10401563,0
26,3349035714	-10400589,0
26,3513901529	-10402907,0
26,3678746026	-10409658,0
26,3843588988	-10421708,0
26,4008420523	-10438668,0
26,4173230743	-10458980,0
26,4338039424	-10480265,0
26,4502836679	-10499768,0
26,4667612621	-10515340,0
26,4832387022	-10526664,0
26,4997149997	-10534525,0
26,516189166	-10540197,0
26,5326631782	-10544739,0
26,5491360476	-10546930,0
26,5656067861	-10546073,0
26,5820773703	-10542189,0
26,5985468117	-10535886,0
26,6150141224	-10529252,0
26,6314812786	-10523799,0
26,647947292	-10522409,0
26,6644111749	-10526017,0
26,680874903	-10532116,0
26,6973374885	-10538618,0
26,7137979435	-10544115,0
26,7302582437	-10547833,0
26,7467174011	-10550323,0
26,7631744284	-10552439,0
26,7796313004	-10554499,0
26,7960870298	-10558214,0
26,8125406293	-10566102,0
26,8289940734	-10579335,0
26,8454463748	-10596818,0
26,8618965465	-10616493,0
26,8783465625	-10636028,0
26,8947954359	-10653776,0
26,9112421798	-10668848,0
26,9276887678	-10678761,0
26,9441342132	-10682447,0
26,9605775292	-10680179,0
26,9770206893	-10673017,0
26,9934627066	-10663670,0
27,0099025949	-10655827,0
27,0263423269	-10651956,0
27,0427809162	-10652858,0
27,0592173767	-10657002,0
27,0756536807	-10661776,0
27,092088842	-10666149,0
27,1085218747	-10668415,0
27,1249547507	-10667571,0
27,141386484	-10664486,0
27,1578160888	-10660870,0
27,1742455368	-10657946,0
27,1906738421	-10656216,0
27,2071000191	-10656170,0
27,2235260391	-10658771,0
27,2399509164	-10665092,0
27,2563736656	-10674234,0
27,2727962576	-10683657,0
27,2892177069	-10691132,0
27,3056370283	-10696340,0
27,3220561922	-10697790,0
27,3384742135	-10695942,0
27,3548901071	-10692577,0
27,371305843	-10688718,0
27,3877204363	-10685666,0
27,4041329021	-10685218,0
27,42054521	-10686867,0
27,4369563752	-10687173,0
27,4533654132	-10683042,0
27,4697742931	-10675369,0
27,4861820304	-10668224,0
27,5025876405	-10665317,0
27,5189930924	-10668495,0
27,5353974017	-10677312,0
27,551799584	-10689766,0
27,5682016079	-10703868,0
27,5846024891	-10718726,0
27,6010012437	-10732853,0
27,6173998396	-10745545,0
27,6337972927	-10757549,0
27,6501926195	-10768877,0
27,6665877874	-10779704,0
27,6829818125	-10790700,0
27,6993737115	-10801229,0
27,7157654514	-10810321,0
27,7321560485	-10816557,0
27,7485445197	-10818715,0
27,7649328315	-10818380,0
27,7813200007	-10816994,0
27,797705044	-10815028,0
27,8140899278	-10813656,0
27,830473669	-10813016,0
27,8468552845	-10811698,0
27,8632367403	-10808873,0
27,8796170534	-10804620,0
27,8959952412	-10799386,0
27,912373269	-10793916,0
27,9287501541	-10789990,0
27,945124914	-10789199,0
27,9614995138	-10791931,0
27,9778729709	-10797559,0
27,994244303	-10805146,0
28,0106154748	-10813250,0
28,0269855038	-10821166,0
28,0433534082	-10829050,0
28,0597211519	-10837324,0
28,076087753	-10847177,0
28,0924522295	-10858969,0
28,1088165452	-10872733,0
28,1251797183	-10888054,0
28,141540767	-10903751,0
28,1579016547	-10918417,0
28,1742613998	-10930641,0
28,1906190207	-10938738,0
28,2069764804	-10942252,0
28,2233327974	-10941298,0
28,2396869905	-10937260,0
28,2560410222	-10932154,0
28,2723939112	-10927698,0
28,2887446765	-10925625,0
28,3050952802	-10925559,0
28,3214447412	-10924825,0
28,3377920787	-10921341,0
28,3541392544	-10915667,0
28,3704852874	-10908331,0
28,386829197	-10900493,0
28,4031729447	-10894403,0
28,4195155497	-10891060,0
28,4358560315	-10890458,0
28,4521963512	-10891325,0
28,4685355282	-10893858,0
28,4848725822	-10899865,0
28,5012094739	-10909425,0
28,5175452228	-10921162,0
28,5338788491	-10933949,0
28,5502123127	-10946088,0
28,5665446337	-10957199,0
28,5828748321	-10967309,0
28,5992048677	-10977004,0
28,6155337606	-10986767,0
28,6318605313	-10997381,0
28,6481871389	-11008556,0
28,6645126038	-11019235,0
28,6808359466	-11028522,0
28,6971591262	-11035498,0
28,7134811631	-11040360,0
28,7298010781	-11044694,0
28,7461208297	-11048723,0
28,7624394386	-11052565,0
28,7787559258	-11056560,0
28,7950722494	-11061742,0
28,8113874303	-11068616,0
28,8277004897	-11075127,0
28,8440133852	-11079602,0
28,8603251381	-11081948,0
28,8766347697	-11082558,0
28,8929442373	-11081712,0
28,9092525621	-11080095,0
28,9255587659	-11078095,0
28,9418648054	-11076899,0
28,9581697023	-11077403,0
28,9744724783	-11078768,0
28,9907750898	-11079701,0
29,0070765586	-11079931,0
29,0233759068	-11079901,0
29,0396750903	-11080920,0
29,0559731311	-11084781,0
29,0722690515	-11092077,0
29,088564807	-11101523,0
29,1048594198	-11112299,0
29,1211519123	-11123604,0
29,1374442398	-11134238,0
29,1537354246	-11143662,0
29,1700244894	-11151256,0
29,1863133888	-11155801,0
29,2026011456	-11157085,0
29,2188867826	-11155643,0
29,235172254	-11153326,0
29,2514565828	-11152398,0
29,2677387919	-11153538,0
29,2840208354	-11156523,0
29,3003017361	-11162168,0
29,3165805175	-11170377,0
29,3328591329	-11179815,0
29,3491366056	-11188526,0
29,3654119592	-11194765,0
29,3816871466	-11195663,0
29,3979611913	-11190163,0
29,414233117	-11181703,0
29,4305048764	-11174660,0
29,4467754932	-11171675,0
29,4630439911	-11173462,0
29,4793123225	-11179331,0
29,4955795112	-11187592,0
29,5118445813	-11197785,0
29,5281094847	-11209988,0
29,5443732453	-11222431,0
29,5606348876	-11233518,0
29,576896363	-11242558,0
29,5931566957	-11250222,0
29,6094149102	-11255883,0
29,6256729575	-11258945,0
29,6419298622	-11259327,0
29,6581846489	-11258037,0
29,6744392682	-11257055,0
29,6906927449	-11258734,0
29,7069441038	-11264602,0
29,7231952951	-11274149,0
29,7394453437	-11285268,0
29,7556932748	-11295591,0
29,7719410381	-11304219,0
29,7881876588	-11310257,0
29,804432162	-11312608,0
29,8206764973	-11311947,0
29,83691969	-11308491,0
29,8531607654	-11303778,0
29,8694016727	-11299352,0
29,8856414373	-11296588,0
29,901879085	-11297237,0
29,9181165642	-11301595,0
29,9343529008	-11308759,0
29,9505871207	-11317814,0
29,9668211719	-11328140,0
29,9830540805	-11337950,0
29,9992848726	-11346133,0
30,0155154958	-11352568,0
30,0317449764	-11357392,0
30,0479723406	-11361150,0
30,0641995359	-11363866,0
30,0804255884	-11365168,0
30,0966495248	-11365620,0
30,1128732921	-11366710,0
30,1290959166	-11369654,0
30,1453164252	-11374293,0
30,1615367644	-11379376,0
30,177755961	-11383530,0
30,1939730418	-11386212,0
30,210189953	-11387921,0
30,2264057215	-11389701,0
30,2426193745	-11393436,0
30,2588328577	-11400192,0
30,2750451982	-11408843,0
30,2912554234	-11416864,0
30,3074654786	-11422881,0
30,3236743911	-11427240,0
30,3398811884	-11430530,0
30,3560878156	-11432151,0
30,3722933001	-11431625,0
30,3884966697	-11430453,0
30,4046998688	-11430402,0
30,4209019253	-11433132,0
30,4371018671	-11439364,0
30,4533016382	-11448621,0
30,4695002667	-11458728,0
30,4856967806	-11468299,0
30,5018931238	-11476890,0
30,5180883242	-11483778,0
30,5342814104	-11488613,0
30,5504743255	-11491707,0
30,5666660979	-11493672,0
30,5828557563	-11495257,0
30,5990452434	-11497147,0
30,6152335878	-11500403,0
30,6314198183	-11505700,0
30,6476058774	-11512522,0
30,6637907938	-11520278,0
30,6799735966	-11528624,0
30,6961562276	-11537104,0
30,712337716	-11545402,0
30,728517091	-11552973,0
30,744696294	-11559138,0
30,7608743544	-11563685,0
30,7770503015	-11567449,0
30,7932260766	-11571458,0
30,8094007089	-11575091,0
30,8255732283	-11577370,0
30,8417455753	-11578621,0
30,8579167797	-11578188,0
30,8740858712	-11575847,0
30,8902547902	-11571873,0
30,9064225665	-11567471,0
30,9225882302	-11564239,0
30,9387537213	-11563836,0
30,9549180696	-11566884,0
30,9710803055	-11572826,0
30,9872423685	-11580161,0
31,0034032888	-11587434,0
31,0195620969	-11594354,0
31,0357207319	-11600280,0
31,0518782242	-11605264,0
31,0680336045	-11608605,0
31,0841888115	-11609261,0
31,1003428757	-11608838,0
31,1164948282	-11610104,0
31,1326466072	-11615111,0
31,1487972435	-11623923,0
31,1649457681	-11635296,0
31,1810941191	-11648117,0
31,1972413273	-11661717,0
31,2133864242	-11674997,0
31,2295313472	-11686913,0
31,2456751274	-11696791,0
31,2618167965	-11704277,0
31,2779582914	-11709932,0
31,2940986436	-11713937,0
31,3102368849	-11716985,0
31,3263749518	-11719198,0
31,342511876	-11720334,0
31,3586466895	-11721007,0
31,3747813284	-11723034,0
31,3909148246	-11727193,0
31,4070462102	-11733424,0
31,4231774211	-11742336,0
31,4393074893	-11754144,0
31,4554354471	-11766515,0
31,47156323	-11776847,0
31,4876898702	-11783787,0
31,5038144002	-11786690,0
31,5199387551	-11787238,0
31,5360619673	-11786847,0
31,5521830695	-11786467,0
31,5683039963	-11787176,0
31,5844237805	-11789423,0
31,6005414549	-11793868,0
31,6166589537	-11800644,0
31,6327753099	-11808848,0
31,6488895565	-11817769,0
31,6650036273	-11826352,0
31,6811165555	-11834208,0
31,6972273742	-11841409,0
31,7133380171	-11847629,0
31,7294475172	-11852228,0
31,7455549082	-11854574,0
31,761662123	-11855549,0
31,7777681951	-11855289,0
31,7938721583	-11853343,0
31,8099759451	-11849449,0
31,8260785892	-11845256,0
31,8421791245	-11842630,0
31,8582794833	-11842608,0
31,8743786994	-11845876,0
31,890475807	-11850822,0
31,9065727377	-11855706,0
31,9226685258	-11860784,0
31,9387622056	-11866637,0
31,9548557083	-11874041,0
31,9709480684	-11882727,0
31,9870383203	-11892228,0
32,0031283951	-11903464,0
32,0192173271	-11917681,0
32,0353041513	-11935778,0
32,051390798	-11957474,0
32,067476302	-11981534,0
32,0835596984	-12005644,0
32,0996429171	-12028741,0
32,1157249931	-12051182,0
32,1318049616	-12075266,0
32,1478847523	-12103788,0
32,1639634004	-12139148,0
32,1800399411	-12182958,0
32,1961163038	-12235471,0
32,2121915238	-12297511,0
32,2282646367	-12368738,0
32,2443375714	-12449842,0
32,2604093634	-12541807,0
32,2764790485	-12645419,0
32,2925485551	-12761748,0
32,3086169191	-12892502,0
32,3246831764	-13039605,0
32,3407492551	-13204485,0
32,356814191	-13386206,0
32,3728770205	-13584313,0
32,3889396712	-13798876,0
32,4050011791	-14031522,0
32,4210605808	-14283230,0
32,4371198034	-14552168,0
32,4531778834	-14835525,0
32,4692338572	-15131664,0
32,4852896519	-15440099,0
32,5013443038	-15759255,0
32,5173968499	-16087100,0
32,5334492165	-16421312,0
32,5495004404	-16759787,0
32,5655495586	-17100615,0
32,5815984972	-17442269,0
32,5976462931	-17782584,0
32,6136919836	-18117587,0
32,6297374942	-18443489,0
32,6457818621	-18758989,0
32,6618241247	-19064706,0
32,6778662073	-19361385,0
32,6939071471	-19648211,0
32,709945982	-19924369,0
32,7259846365	-20189162,0
32,7420221484	-20442266,0
32,7580575554	-20684153,0
32,774092782	-20915581,0
32,7901268658	-21137718,0
32,8061588451	-21351085,0
32,8221906436	-21554982,0
32,8382212994	-21748688,0
32,8542498509	-21931519,0
32,8702782214	-22103090,0
32,8863054492	-22264680,0
32,9023305728	-22417035,0
32,9183555153	-22559009,0
32,9343793151	-22689525,0
32,9504010109	-22809772,0
32,9664225254	-22922277,0
32,9824428972	-23028898,0
32,9984611652	-23131249,0
33,0144792517	-23230355,0
33,0304961955	-23325676,0
33,0465110357	-23416097,0
33,0625256942	-23502081,0
33,0785392099	-23584556,0
33,0945506223	-23664226,0
33,1105618528	-23741200,0
33,1265719405	-23814826,0
33,1425799251	-23885846,0
33,1585877276	-23954863,0
33,1745943873	-24021944,0
33,1905989441	-24088379,0
33,2066033185	-24154875,0
33,2226065502	-24221172,0
33,2386076792	-24287224,0
33,2546086256	-24353306,0
33,2706084293	-24419670,0
33,2866061305	-24486402,0
33,3026036489	-24554357,0
33,3186000246	-24624418,0
33,334594298	-24696900,0
33,3505883884	-24771988,0
33,3665813361	-24850059,0
33,3825721816	-24930972,0
33,398562844	-25013611,0
33,4145523637	-25096897,0
33,4305397814	-25180241,0
33,4465270158	-25263252,0
33,4625131075	-25345454,0
33,4784970974	-25425586,0
33,4944809037	-25502865,0
33,5104635674	-25576463,0
33,5264441295	-25645515,0
33,5424245079	-25709750,0
33,5584037435	-25769564,0
33,5743808778	-25825531,0
33,5903578282	-25878608,0
33,6063336358	-25929096,0
33,6223073423	-25977477,0
33,6382808646	-26023086,0
33,6542532442	-26065923,0
33,670223523	-26106578,0
33,6861936173	-26145360,0
33,7021625689	-26182525,0
33,7181294198	-26218447,0
33,7340960861	-26253527,0
33,7500616097	-26287979,0
33,7660250327	-26321984,0
33,781988271	-26354221,0
33,7979503666	-26384150,0
33,8139103619	-26412491,0
33,8298701722	-26440451,0
33,8458288397	-26468272,0
33,8617854072	-26495659,0
33,8777417895	-26521233,0
33,893697029	-26544323,0
33,9096501687	-26565156,0
33,9256031229	-26584138,0
33,9415549345	-26601856,0
33,9575046463	-26619489,0
33,9734541726	-26636684,0
33,9894025561	-26651936,0
34,0053488402	-26665090,0
34,0212949384	-26676513,0
34,0372398939	-26686800,0
34,0531827501	-26696445,0
34,0691254203	-26705361,0
34,0850669479	-26712882,0
34,1010063763	-26718920,0
34,1169456185	-26724295,0
34,132883718	-26729606,0
34,1488197186	-26734212,0
34,1647555328	-26737800,0
34,1806902043	-26741403,0
34,1966227771	-26746672,0
34,2125551633	-26754765,0
34,2284864067	-26765689,0
34,2444155518	-26778576,0
34,2603445099	-26792024,0
34,2762723254	-26805045,0
34,2921980426	-26816086,0
34,3081235727	-26824335,0
34,3240479602	-26829612,0
34,3399702496	-26833116,0
34,3558923517	-26836767,0
34,3718133111	-26841844,0
34,3877321727	-26848657,0
34,4036508469	-26857800,0
34,4195683783	-26869000,0
34,4354838121	-26881016,0
34,4513990582	-26892862,0
34,4673131616	-26903654,0
34,4832251676	-26913759,0
34,4991369857	-26922466,0
34,5150476611	-26928862,0
34,5309562392	-26933104,0
34,5468646293	-26936363,0
34,5627718767	-26940446,0
34,5786770271	-26946334,0
34,5945819891	-26953336,0
34,6104858085	-26960590,0
34,6263875311	-26966899,0
34,6422890651	-26971450,0
34,6581894565	-26974346,0
34,6740877512	-26976423,0
34,6899858573	-26978889,0
34,7058828206	-26982338,0
34,7217776876	-26987135,0
34,7376723656	-26993139,0
34,7535659009	-26999540,0
34,7694573401	-27005293,0
34,7853485901	-27010011,0
34,8012386974	-27013665,0
34,8171267088	-27016238,0
34,8330145308	-27017397,0
34,8489012101	-27017174,0
34,8647857936	-27016634,0
34,8806701876	-27016529,0
34,8965534389	-27016741,0
34,9124345946	-27016580,0
34,9283155606	-27015573,0
34,9441953839	-27014462,0
34,9600731118	-27013645,0
34,9759506497	-27013557,0
34,991827045	-27014704,0
35,0077013451	-27016965,0
35,0235754551	-27020132,0
35,0394484223	-27023170,0
35,0553192946	-27025379,0
35,0711899766	-27027242,0
35,0870595158	-27029442,0
35,1029269603	-27032013,0
35,1187942142	-27034880,0
35,1346603255	-27038502,0
35,1505243422	-27043540,0
35,1663881681	-27049557,0
35,1822508513	-27055024,0
35,1981114402	-27058737,0
35,2139718381	-27060868,0
35,2298310933	-27061635,0
35,2456882544	-27060375,0
35,2615452243	-27056469,0
35,2774010514	-27050566,0
35,2932547847	-27043386,0
35,3091083266	-27035776,0
35,3249607258	-27028010,0
35,3408110312	-27021152,0
35,3566611451	-27016509,0
35,3725101163	-27014484,0
35,3883569939	-27014591,0
35,4042036798	-27016965,0
35,4200492229	-27022173,0
35,4358926728	-27029738,0
35,4517359306	-27038014,0
35,4675780458	-27046840,0
35,4834180678	-27056048,0
35,4992578976	-27064758,0
35,5150965848	-27072041,0
35,530933179	-27078003,0
35,5467695808	-27082260,0
35,5626048399	-27084405,0
35,5784380064	-27084696,0
35,5942709802	-27084167,0
35,6101028113	-27083027,0
35,6259325499	-27081383,0
35,6417620957	-27080351,0
35,6575904988	-27080035,0
35,6734168096	-27079065,0
35,6892429273	-27076082,0
35,7050679024	-27070463,0
35,7208907854	-27061495,0
35,7367134752	-27048967,0
35,7525350223	-27032204,0
35,7683544775	-27009520,0
35,7841737392	-26979650,0
35,7999918583	-26942127,0
35,8158078857	-26897661,0
35,8316237194	-26847292,0
35,8474384104	-26790901,0
35,86325101	-26727063,0
35,8790634158	-26654353,0
35,8948746788	-26571621,0
35,9106838506	-26476340,0
35,9264928283	-26365189,0
35,9423006633	-26235243,0
35,9581064073	-26084417,0
35,973911957	-25911002,0
35,989716364	-25713498,0
36,0055186801	-25490859,0
36,0213208018	-25243068,0
36,0371217808	-24970918,0
36,0529206692	-24674958,0
36,0687193628	-24356421,0
36,0845169138	-24018300,0
36,1003123744	-23663339,0
36,11610764	-23293380,0
36,131901763	-22909062,0
36,1476937958	-22511286,0
36,1634856334	-22100959,0
36,1792763284	-21678857,0
36,1950649333	-21247067,0
36,2108533429	-20807672,0
36,2266406099	-20361664,0
36,242425787	-19910035,0
36,2582107686	-19454106,0
36,2739946076	-18995821,0
36,2897763569	-18538023,0
36,3055579105	-18083978,0
36,3213383214	-17635844,0
36,3371166429	-17195216,0
36,3528947685	-16763643,0
36,3686717514	-16343195,0
36,3844466451	-15935366,0
36,4002213427	-15541094,0
36,4159948976	-15160518,0
36,4317663635	-14792552,0
36,4475376331	-14432779,0
36,46330776	-14079278,0
36,4790757981	-13733720,0
36,4948436396	-13397895,0
36,5106103385	-13073126,0
36,5263749488	-12760901,0
36,5421393623	-12461351,0
36,5579026332	-12172990,0
36,5736638157	-11893281,0
36,5894248012	-11620242,0
36,605184644	-11352884,0
36,6209423987	-11092022,0
36,6366999562	-10839186,0
36,6524563711	-10594709,0
36,6682106979	-10358686,0
36,6839648275	-10130158,0
36,6997178143	-9907113,0
36,7154687133	-9688809,0
36,7312194148	-9476295,0
36,7469689736	-9270487,0
36,7627164449	-9071612,0
36,7784637184	-8878742,0
36,7942098492	-8690977,0
36,8099538926	-8507384,0
36,8256977381	-8326751,0
36,8414404409	-8148783,0
36,8571810565	-7974051,0
36,872921474	-7802804,0
36,8886607487	-7633432,0
36,9043979366	-7466138,0
36,920134926	-7301620,0
36,9358707728	-7139457,0
36,9516045328	-6978857,0
36,9673380942	-6819801,0
36,983070513	-6662762,0
36,9988008452	-6506830,0
37,0145309786	-6351828,0
37,0302599693	-6197802,0
37,0459868737	-6043577,0
37,0617135792	-5887397,0
37,0774391419	-5728878,0
37,0931626185	-5569971,0
37,1088858959	-5412438,0
37,1246080306	-5256963,0
37,1403280794	-5106281,0
37,1560479288	-4962426,0
37,1717666355	-4825685,0
37,1874832564	-4695269,0
37,2031996778	-4570073,0
37,2189149565	-4448896,0
37,2346281497	-4330581,0
37,250341143	-4213121,0
37,2660529937	-4095894,0
37,2817627591	-3978807,0
37,2974723244	-3863657,0
37,3131807471	-3752749,0
37,3288870847	-3647764,0
37,344593222	-3550054,0
37,3602982166	-3457929,0
37,3760011264	-3368726,0
37,3917038357	-3279864,0
37,4074054023	-3190340,0
37,4231048843	-3098709,0
37,4388041656	-3004098,0
37,4545023042	-2908303,0
37,4701983584	-2815107,0
37,4858942117	-2727814,0
37,5015889223	-2645989,0
37,5172815486	-2567093,0
37,5329739739	-2489757,0
37,5486652565	-2412431,0
37,564354455	-2333603,0
37,5800434523	-2251536,0
37,5957313069	-2165897,0
37,6114170776	-2080087,0
37,6271026469	-1998947,0
37,6427870734	-1926064,0
37,6584694164	-1863869,0
37,6741515576	-1810762,0
37,6898325561	-1764251,0
37,7055114713	-1722085,0
37,7211901845	-1681479,0
37,736867755	-1641576,0
37,7525432423	-1601975,0
37,7682185276	-1562178,0
37,7838926701	-1523133,0
37,7995647296	-1486067,0
37,8152365868	-1451203,0
37,8309073013	-1417955,0
37,846575933	-1385600,0
37,8622443622	-1353501,0
37,8779116487	-1320851,0
37,8935768526	-1288095,0
37,9092418538	-1254582,0
37,9249057123	-1218653,0
37,9405674884	-1180001,0
37,9562290615	-1139614,0
37,971889492	-1098832,0
37,9875478403	-1059315,0
38,0032059854	-1023366,0
38,0188629879	-993089,0
38,0345179084	-969346,0
38,0501726255	-951562,0
38,0658262	-938277,0
38,0814776926	-927966,0
38,0971289818	-919631,0
38,1127791282	-911299,0
38,128427193	-900768,0
38,1440750542	-886926,0
38,1597217726	-870720,0
38,1753664096	-852153,0
38,1910108427	-832045,0
38,2066541332	-814540,0
38,2222953424	-803081,0
38,2379363475	-797410,0
38,2535762099	-795007,0
38,2692139913	-792924,0
38,2848515684	-789239,0
38,3004880028	-782503,0
38,3161223564	-773010,0
38,3317565055	-761266,0
38,3473895119	-746093,0
38,3630204377	-727794,0
38,3786511587	-708256,0
38,3942807371	-688718,0
38,4099082351	-671155,0
38,4255355282	-657042,0
38,4411616785	-648289,0
38,4567857487	-644137,0
38,4724096137	-641420,0
38,4880323361	-638024,0
38,5036529785	-632472,0
38,5192734155	-624161,0
38,5348927098	-613494,0
38,5505099244	-601453,0
38,5661269334	-588782,0
38,5817427997	-577594,0
38,5973565865	-570189,0
38,6129701675	-566173,0
38,6285826058	-564867,0
38,6441929648	-566092,0
38,6598031178	-568597,0
38,6754121281	-569973,0
38,6910190592	-568886,0
38,7066257842	-565489,0
38,7222313665	-559932,0
38,7378348698	-552613,0
38,7534381668	-543997,0
38,7690403211	-535129,0
38,7846403966	-527467,0
38,8002402656	-522622,0
38,8158389918	-519992,0
38,8314356396	-516820,0
38,8470320805	-512554,0
38,8626273787	-507677,0
38,8782205987	-502098,0
38,8938136116	-495341,0
38,9094054818	-488462,0
38,924995274	-482495,0
38,9405848589	-478116,0
38,9561733011	-474347,0
38,9717596654	-471089,0
38,9873458223	-468374,0
39,0029308365	-465940,0
39,018513773	-464136,0
39,0340965019	-463848,0
39,0496780881	-463999,0
39,0652575968	-461995,0
39,0808368977	-456973,0
39,0964150558	-448595,0
39,1119911367	-438345,0
39,1275670096	-428982,0
39,1431417398	-420875,0
39,1587143929	-412514,0
39,1742868377	-402234,0
39,1898581399	-388994,0
39,2054273652	-373239,0
39,220996382	-356274,0
39,2365642561	-338404,0
39,2521300536	-321380,0
39,2676956424	-308458,0
39,2832600885	-300586,0
39,2988224582	-297593,0
39,314384619	-298591,0
39,3299456371	-302846,0
39,345504579	-309828,0
39,3610633118	-318674,0
39,3766209019	-328182,0
39,392176416	-336743,0
39,4077317208	-343704,0
39,4232858828	-349630,0
39,4388379691	-353660,0
39,4543898459	-355676,0
39,4699405799	-356436,0
39,4854892384	-355348,0
39,5010376871	-351817,0
39,5165849932	-346583,0
39,5321302239	-341048,0
39,5476752446	-337120,0
39,5632191226	-336183,0
39,5787609255	-338405,0
39,5943025182	-343004,0
39,6098429682	-348573,0
39,6253813433	-353685,0
39,640919508	-358325,0
39,65645653	-363630,0
39,6719914772	-370262,0
39,687526214	-376972,0
39,703059808	-383867,0
39,7185913274	-390974,0
39,7341226361	-395704,0
39,7496528021	-396640,0
39,7651808937	-394513,0
39,7807087744	-390309,0
39,7962355123	-383366,0
39,8117601762	-373163,0
39,8272846288	-361061,0
39,8428079388	-349483,0
39,8583291748	-340137,0
39,8738501994	-334244,0
39,8893700814	-332160,0
39,9048878896	-333390,0
39,9204054862	-336473,0
39,9359219402	-340691,0
39,9514363206	-346485,0
39,9669504892	-353970,0
39,9824635151	-361768,0
39,9979744677	-367088,0
40,0134852083	-368372,0
40,0289948062	-365989,0
40,044502331	-360332,0
40,0600096436	-352128,0
40,0755158135	-344545,0
40,0910199105	-339576,0
40,1065237951	-338006,0
40,122026537	-340421,0
40,1375272061	-345578,0
40,1530276627	-349802,0
40,1685269766	-352215,0
40,1840242179	-353023,0
40,1995212465	-352357,0
40,2150171324	-350189,0
40,2305109459	-346920,0
40,2460045465	-343505,0
40,2614970043	-342649,0
40,2769873901	-344184,0
40,2924775626	-345481,0
40,3079665925	-343761,0
40,3234535504	-338800,0
40,3389402949	-333514,0
40,3544258967	-330696,0
40,3699094269	-331809,0
40,3853927434	-337689,0
40,4008749172	-346536,0
40,4163550195	-354845,0
40,431834908	-360258,0
40,4473136538	-363048,0
40,4627903283	-364296,0
40,4782667888	-363868,0
40,4937421066	-360149,0
40,5092153533	-352622,0
40,5246883858	-342293,0
40,5401602756	-330415,0
40,5556300945	-318307,0
40,571099699	-307901,0
40,5865681607	-299519,0
40,6020345518	-292489,0
40,6175007283	-286333,0
40,632965762	-280943,0
40,6484287253	-277388,0
40,6638914737	-275847,0
40,6793530795	-276744,0
40,694812615	-279911,0
40,7102719354	-285657,0
40,7257301131	-294362,0
40,7411862208	-306225,0
40,7566421132	-320006,0
40,7720968629	-332793,0
40,7875495428	-342416,0
40,8030020072	-348578,0
40,8184533289	-352846,0
40,8339025809	-355971,0
40,8493516173	-357659,0
40,864799511	-357397,0
40,8802453353	-355444,0
40,8956909436	-352200,0
40,9111354093	-347720,0
40,9265778058	-342019,0
40,9420199861	-336098,0
40,9574610238	-331144,0
40,9728999924	-328385,0
40,9883387448	-329376,0
41,0037763544	-333124,0
41,0192118953	-337498,0
41,0346472196	-339232,0
41,0500814013	-336111,0
41,0655135143	-328563,0
41,0809454106	-319060,0
41,0963761642	-311038,0
41,1118048494	-306016,0
41,1272333178	-302971,0
41,1426606434	-299949,0
41,1580859008	-296639,0
41,1735109411	-293361,0
41,1889348387	-289711,0
41,2043566683	-285460,0
41,2197782806	-280991,0
41,2351987502	-276706,0
41,250617152	-272050,0
41,2660353362	-267857,0
41,2814523778	-266161,0
41,2968673518	-268262,0
41,3122821081	-273761,0
41,3276957216	-282132,0
41,3431072678	-292101,0
41,3585185961	-301675,0
41,3739287816	-307993,0
41,3893369	-309254,0
41,4047448002	-304215,0
41,4201515578	-294551,0
41,4355562483	-282795,0
41,4509607206	-270906,0
41,4663640501	-261995,0
41,4817653128	-257208,0
41,4971663571	-255129,0
41,5125662586	-254639,0
41,5279640935	-256669,0
41,5433617097	-261999,0
41,5587581832	-270851,0
41,5741525904	-283384,0
41,5895467786	-298677,0
41,6049398241	-313630,0
41,6203308034	-324599,0
41,6357215636	-328920,0
41,651111181	-326969,0
41,6664987326	-320136,0
41,6818860647	-310121,0
41,6972722542	-300085,0
41,7126563779	-291844,0
41,7280402821	-285845,0
41,7434230435	-283176,0
41,7588037394	-283225,0
41,7741842156	-283663,0
41,789563549	-283436,0
41,8049408171	-281247,0
41,8203178653	-277895,0
41,8356937707	-275813,0
41,851067611	-276749,0
41,8664412311	-282054,0
41,8818137085	-291862,0
41,897184121	-304980,0
41,9125543131	-317729,0
41,9279233625	-326798,0
41,9432903472	-331616,0
41,9586571113	-332088,0
41,9740227327	-328911,0
41,9893862896	-323598,0
42,0047496256	-317363,0
42,020111819	-311223,0
42,0354719481	-305206,0
42,0508318562	-298848,0
42,0661906215	-292096,0
42,0815473228	-283916,0
42,0969038028	-274939,0
42,1122591402	-267357,0
42,1276124137	-261031,0
42,1429654657	-253799,0
42,158317375	-244367,0
42,1736672207	-233883,0
42,1890168447	-223065,0
42,204365326	-215205,0
42,2197117439	-214310,0
42,2350579399	-220708,0
42,2504029932	-231585,0
42,2657459833	-244613,0
42,2810887512	-259151,0
42,2964303766	-274145,0
42,3117699388	-288207,0
42,3271092788	-300301,0
42,3424474761	-310772,0
42,3577836105	-320073,0
42,3731195225	-325113,0
42,3884542917	-323458,0
42,4037869984	-315928,0
42,4191194823	-305273,0
42,4344508236	-294151,0
