File Path	chrom://5-para-12-0017/ChromeleonLocal/Instrument Data/UHPLC_2/analysis 2016/Albert2016/20161202 BMS 1 Avert plate 10.seq/824.smp/Emission_1.channel/Emission_1.chm
Channel	Emission_1

Injection Information:
Data Vault	ChromeleonLocal
Injection	Blank
Injection Number	88
Position	R3
Comment	refilled ACN; refilled NH4FA after F7
Processing Method	Integrate IgG 75-63%
Instrument Method	2015_deepwell_IgGNglycome 600 ulmin 75%-63% 20160815_2AA_R3
Type	Blank
Status	Finished
Injection Date	6-12-2016
Injection Time	15:41:13
Injection Volume (µl)	25,000
Dilution Factor	1,0000
Weight	1,0000

Raw Data Information:
Time Min. (min)	0,016717
Time Max. (min)	43,100050
Data Points	2586
Detector	FLD
Exporting Data System	Chromeleon 7.1.2.1478
Operator	
Signal Quantity	
Signal Unit	counts
Signal Min.	-29.245.923,000000
Signal Max.	1.370.031,000000
Channel	Emission_1
Driver Name	FLD3000.dll
Channel Type	Evaluation
Min. Step (s)	1,000
Max. Step (s)	1,000
Average Step (s)	1,000

Signal Parameter Information:
Signal Info	250 nm /425 nm

Raw Data:
Time (min)	Step (s)	Value (counts)
-0,341268290701	0,0
-0,323642306481	0,0
-0,306016233897	0,0
-0,288391130578	0,0
-0,270768053924	-3168,0
-0,253144889079	-9861,0
-0,235522693499	-16140,0
-0,217902524409	-21181,0
-0,200282267304	-24856,0
-0,182662979464	-27531,0
-0,165045717938	-29285,0
-0,147428368572	-29881,0
-0,129811988471	-30340,0
-0,112197634511	-31333,0
-0,0945831928832	-31349,0
-0,0769697205217	-28645,0
-0,059358274126	-21920,0
-0,041746740238	-12169,0
-0,0241361756157	-1891,0
-0,00652763678474	6828,0
0,0110809893641	13401,0
0,0286886462471	17812,0
0,0462942775133	20178,0
0,0638999959229	20876,0
0,0815047450666	21086,0
0,099107468768	21508,0
0,116710279438	22104,0
0,134312120843	22836,0
0,15191193698	24307,0
0,169511839911	26395,0
0,187110773576	28264,0
0,204707682148	28978,0
0,22230467734	28633,0
0,239900703266	28914,0
0,257494704273	31102,0
0,275088791725	34186,0
0,292681909912	38040,0
0,310273003355	42819,0
0,327864183068	46936,0
0,345454393515	47753,0
0,363042579393	45202,0
0,380630851367	41347,0
0,398218154076	36877,0
0,415803432388	32160,0
0,433388796623	27748,0
0,450973191592	25301,0
0,46855556234	24333,0
0,486138018836	23055,0
0,503719506066	21283,0
0,521298969249	19842,0
0,538878518005	19952,0
0,556457097496	20969,0
0,574033653114	21673,0
0,591610294132	22290,0
0,609185965883	24533,0
0,626759613937	29111,0
0,644333347215	36103,0
0,661906111227	44812,0
0,679476851716	54402,0
0,697047677254	63029,0
0,714617533527	69375,0
0,732185366451	73204,0
0,749753284251	75004,0
0,767320232784	74690,0
0,784885158144	72665,0
0,802450168204	69988,0
0,820014208998	65705,0
0,837576226793	58391,0
0,855138329114	49598,0
0,872699462169	40167,0
0,890258572399	29835,0
0,907817766981	20101,0
0,925375992297	12994,0
0,942932194961	8775,0
0,960488481804	7092,0
0,978043799381	6390,0
0,995597094481	5749,0
1,01315047358	5215,0
1,03070288342	4298,0
1,04825327096	1895,0
1,06580374232	-2101,0
1,08335324442	-6700,0
1,10090072439	-10789,0
1,11844828801	-13197,0
1,13599488237	-13447,0
1,15353945478	-11076,0
1,17108411067	-5454,0
1,18862779728	2396,0
1,20616946213	10985,0
1,22371121027	19321,0
1,24125198915	26280,0
1,25879074643	29619,0
1,27632958684	28182,0
1,29386745798	22645,0
1,31140330769	13567,0
1,32893924036	3918,0
1,34647420376	-2715,0
1,36400714591	-4983,0
1,38154017083	-3436,0
1,3990722265	262,0
1,41660226108	5023,0
1,43413237827	9971,0
1,45166152619	13999,0
1,46918865321	15622,0
1,48671586266	14288,0
1,50424210284	10093,0
1,5217663223	4515,0
1,53929062401	-213,0
1,55681395645	-2654,0
1,57433526834	-2834,0
1,59185666231	-1615,0
1,60937708702	225,0
1,62689549134	2021,0
1,64441397757	2793,0
1,66193149454	2682,0
1,6794469913	3106,0
1,69696256979	4181,0
1,71447717902	4863,0
1,73198976821	3247,0
1,74950243896	-1759,0
1,76701414045	-8764,0
1,78452382208	-15728,0
1,8020335851	-20914,0
1,81954237885	-23047,0
1,83704915291	-20890,0
1,85455600818	-14108,0
1,87206189419	-4229,0
1,88956576069	6927,0
1,90706970823	18719,0
1,9245726865	31195,0
1,94207364543	45830,0
1,95957468523	64127,0
1,97707475576	86980,0
1,99457280713	114538,0
2,01207093919	146808,0
2,02956810198	183371,0
2,04706324579	221660,0
2,0645584701	260165,0
2,08205272516	298670,0
2,0995449614	339278,0
2,11703727798	383797,0
2,13452862529	432754,0
2,15201795396	486282,0
2,1695073628	544590,0
2,18699580238	608997,0
2,20448222349	680042,0
2,22196872459	756318,0
2,23945425642	834923,0
2,25693776997	912210,0
2,27442136333	985375,0
2,29190398743	1054093,0
2,30938459341	1118640,0
2,32686527903	1177903,0
2,34434499539	1230473,0
2,3618226938	1275118,0
2,37930047169	1311451,0
2,3967772803	1339788,0
2,41425207115	1360123,0
2,4317269413	1370031,0
2,44920084218	1365797,0
2,46667272546	1343812,0
2,48414468787	1301149,0
2,50161568101	1236134,0
2,51908465673	1148119,0
2,53655371139	1038901,0
2,55402179679	910242,0
2,57148786495	765218,0
2,58895401188	608551,0
2,60641918954	445116,0
2,62388235013	277403,0
2,64134558932	106281,0
2,65880785924	-68284,0
2,67626811226	-244692,0
2,69372844371	-421660,0
2,71118780589	-598030,0
2,72864515136	-773159,0
2,74610257506	-946879,0
2,76355902951	-1117187,0
2,7810134674	-1280980,0
2,79846798337	-1436315,0
2,81592153008	-1583854,0
2,83337306041	-1724296,0
2,85082466864	-1858062,0
2,8682753076	-1985084,0
2,88572393037	-2106545,0
2,90317263086	-2224668,0
2,92062036209	-2339729,0
2,93806607729	-2451298,0
2,95551187004	-2558089,0
2,97295669353	-2660287,0
2,99039950117	-2758420,0
3,00784238618	-2852663,0
3,02528430193	-2943016,0
3,042724202	-3028368,0
3,06016417927	-3108423,0
3,07760318728	-3184547,0
3,09504017979	-3257598,0
3,11247724932	-3327247,0
3,12991334959	-3394055,0
3,14734743453	-3458751,0
3,16478159633	-3519142,0
3,18221478886	-3573996,0
3,19964596624	-3625625,0
3,21707722029	-3675485,0
3,23450750508	-3723540,0
3,2519357749	-3770902,0
3,26936412121	-3818577,0
3,28679149826	-3866638,0
3,30421686051	-3913393,0
3,32164229909	-3957264,0
3,3390667684	-3997467,0
3,35648922309	-4034675,0
3,37391175392	-4069472,0
3,3913333155	-4101992,0
3,40875286262	-4133202,0
3,42617248571	-4164876,0
3,44359113955	-4198475,0
3,4610077791	-4233597,0
3,47842449446	-4267449,0
3,49584024055	-4297347,0
3,51325397255	-4322153,0
3,53066778016	-4341837,0
3,54808061852	-4357644,0
3,56549144295	-4370551,0
3,58290234283	-4381166,0
3,60031227344	-4390887,0
3,6177201903	-4400214,0
3,63512818244	-4409161,0
3,65253520532	-4418945,0
3,66994021462	-4431089,0
3,68734529902	-4445222,0
3,70474941415	-4460369,0
3,72215151589	-4475910,0
3,73955369255	-4491705,0
3,75695489995	-4508116,0
3,77435409411	-4524302,0
3,79175336304	-4539751,0
3,80915166269	-4553942,0
3,8265479493	-4566348,0
3,84394431048	-4576417,0
3,8613397024	-4584295,0
3,87873308144	-4591220,0
3,89612653488	-4597447,0
3,91351901906	-4602649,0
3,93090949053	-4607331,0
3,94830003624	-4613140,0
3,96568961268	-4621148,0
3,98307717659	-4630339,0
4,00046481455	-4641340,0
4,01785148325	-4654652,0
4,0352361396	-4668029,0
4,05262086983	-4678995,0
4,07000463079	-4686017,0
4,08738637957	-4689784,0
4,10476820205	-4693225,0
4,12214905528	-4697270,0
4,13952789649	-4701110,0
4,15690681124	-4704551,0
4,17428475672	-4707830,0
4,19166069037	-4710541,0
4,20903669738	-4713820,0
4,22641173512	-4718404,0
4,24378476121	-4722523,0
4,26115786048	-4724841,0
4,27852999048	-4725755,0
4,295900109	-4726798,0
4,31327030053	-4728178,0
4,3306395228	-4730828,0
4,34800673375	-4735500,0
4,36537401755	-4741993,0
4,38274033207	-4749396,0
4,40010463546	-4757638,0
4,41746901151	-4766557,0
4,4348324183	-4774884,0
4,45219381413	-4781327,0
4,46955528244	-4785724,0
4,48691578149	-4788577,0
4,50427426975	-4791614,0
4,52163283032	-4795627,0
4,53899042163	-4801049,0
4,55634600233	-4807876,0
4,57370165516	-4815194,0
4,59105633873	-4821777,0
4,60840901186	-4827173,0
4,62576175696	-4831227,0
4,64311353279	-4834758,0
4,66046329835	-4839558,0
4,67781313571	-4846332,0
4,6951620038	-4854695,0
4,7125088618	-4863962,0
4,72985579142	-4873163,0
4,74720175177	-4881241,0
4,7645457022	-4887680,0
4,78188972408	-4892852,0
4,7992327767	-4897382,0
4,81657381957	-4902070,0
4,83391493371	-4907882,0
4,85125507858	-4914357,0
4,86859321389	-4918718,0
4,88593142028	-4918655,0
4,90326865742	-4914939,0
4,92060388516	-4910575,0
4,93793918382	-4908500,0
4,95527351322	-4910605,0
4,97260583339	-4917041,0
4,98993822431	-4926653,0
5,00726964597	-4937541,0
5,02459905858	-4948376,0
5,04192854176	-4959043,0
5,05925705568	-4969735,0
5,07658356073	-4979953,0
5,09391013617	-4988640,0
5,11123574235	-4996298,0
5,12855933983	-5003768,0
5,14588300753	-5010135,0
5,16320570597	-5013665,0
5,18052639589	-5014695,0
5,19784715585	-5013880,0
5,21516694655	-5011534,0
5,2324847289	-5008621,0
5,24980258113	-5005615,0
5,26711946409	-5002274,0
5,28443433888	-4996844,0
5,30174928336	-4988543,0
5,31906325858	-4979931,0
5,33637522581	-4973235,0
5,35368726255	-4970784,0
5,37099833003	-4973904,0
5,38830738969	-4980828,0
5,4056165187	-4988661,0
5,42292467844	-4996423,0
5,44023083053	-5003767,0
5,4575370518	-5010904,0
5,4748423038	-5018059,0
5,49214554833	-5023957,0
5,50944886186	-5027347,0
5,52675120613	-5030228,0
5,54405154309	-5035495,0
5,56135194888	-5043314,0
5,5786513854	-5051820,0
5,5959488148	-5058469,0
5,61324631285	-5061646,0
5,63054284164	-5063048,0
5,64783736347	-5065128,0
5,66513195378	-5067814,0
5,68242557483	-5070755,0
5,6997171891	-5072744,0
5,71700887167	-5073340,0
5,73429958498	-5072342,0
5,75158829168	-5070738,0
5,76887706651	-5070774,0
5,78616487208	-5073902,0
5,80345067122	-5080739,0
5,82073653832	-5090803,0
5,83802143614	-5101866,0
5,85530432772	-5112877,0
5,87258728707	-5122159,0
5,88986927716	-5127156,0
5,90714926117	-5127374,0
5,92442931279	-5123720,0
5,94170839514	-5118508,0
5,95898547158	-5115548,0
5,97626261546	-5117113,0
5,99353879007	-5122230,0
6,01081295895	-5129350,0
6,02808719509	-5137673,0
6,04536046196	-5147145,0
6,06263172327	-5156414,0
6,07990305167	-5163664,0
6,0971734108	-5168355,0
6,11444176455	-5171524,0
6,13171018521	-5174987,0
6,1489776366	-5179779,0
6,16624308279	-5186194,0
6,18350859571	-5193797,0
6,20077313936	-5200520,0
6,21803567798	-5205502,0
6,23529828316	-5208144,0
6,25255991908	-5209839,0
6,26981955014	-5212404,0
6,28707924758	-5216791,0
6,30433797575	-5222868,0
6,32159469924	-5229314,0
6,33885148894	-5235159,0
6,35610730938	-5239357,0
6,37336112531	-5241702,0
6,39061500727	-5242755,0
6,40786791996	-5243081,0
6,42511882833	-5244544,0
6,44236980255	-5247468,0
6,45961980751	-5251085,0
6,47686780831	-5254443,0
6,49411587479	-5256491,0
6,51136297201	-5256817,0
6,52860806524	-5256222,0
6,54585322398	-5256218,0
6,56309741346	-5257390,0
6,58033959913	-5260175,0
6,59758185014	-5264820,0
6,61482313187	-5270929,0
6,63206240998	-5277441,0
6,64930175324	-5283448,0
6,66654012724	-5289003,0
6,68377649778	-5294858,0
6,70101293331	-5302185,0
6,71824839957	-5311340,0
6,73548186254	-5321524,0
6,75271539033	-5331966,0
6,76994794885	-5343595,0
6,78717850426	-5356409,0
6,80440912431	-5367656,0
6,82163877509	-5375624,0
6,83886642294	-5380850,0
6,85609413525	-5383032,0
6,87332087829	-5382328,0
6,89054561857	-5379925,0
6,90777042314	-5376865,0
6,92499425844	-5373008,0
6,94221609116	-5368504,0
6,95943798799	-5363950,0
6,97665891555	-5360319,0
6,9938778407	-5357786,0
7,01109682979	-5356286,0
7,02831484962	-5356941,0
7,0455308672	-5359466,0
7,06274694856	-5363016,0
7,07996206064	-5367267,0
7,09717517066	-5371104,0
7,11438834428	-5374528,0
7,13160054862	-5377887,0
7,14881075108	-5381698,0
7,16602101695	-5386260,0
7,18323031356	-5390627,0
7,20043760845	-5393353,0
7,21764496658	-5394379,0
7,23485135545	-5393764,0
7,25205574278	-5391950,0
7,26926019317	-5389950,0
7,2864636743	-5389905,0
7,30366515406	-5393060,0
7,32086669672	-5399520,0
7,33806727011	-5408277,0
7,35526584231	-5417655,0
7,37246447722	-5427180,0
7,38966214287	-5435780,0
7,40685780751	-5441874,0
7,42405353468	-5445033,0
7,44124829259	-5446359,0
7,45844104966	-5447603,0
7,4756338691	-5450362,0
7,49282571927	-5456458,0
7,51001556877	-5465231,0
7,52720548047	-5474097,0
7,54439442291	-5481032,0
7,56158136484	-5485705,0
7,5787683688	-5488043,0
7,5959544035	-5488772,0
7,61313843787	-5488806,0
7,63032253409	-5489352,0
7,64750566104	-5491741,0
7,66468678785	-5496672,0
7,68186797633	-5503618,0
7,69904819555	-5509484,0
7,71622641479	-5512202,0
7,73340469553	-5511942,0
7,75058200701	-5509744,0
7,76775731869	-5506334,0
7,78493269169	-5503021,0
7,80210709543	-5501918,0
7,81927949954	-5505896,0
7,8364519648	-5515120,0
7,8536234608	-5527306,0
7,87079295735	-5539713,0
7,88796251487	-5550330,0
7,90513110313	-5557310,0
7,92229769212	-5559477,0
7,9394643419	-5557483,0
7,95663002242	-5554787,0
7,97379370384	-5553032,0
7,99095744589	-5552067,0
8,00812021867	-5550901,0
8,02528099252	-5549618,0
8,04244182683	-5549160,0
8,05960169187	-5551230,0
8,07675955816	-5556301,0
8,09391748472	-5564884,0
8,11107444203	-5575640,0
8,12822940075	-5587210,0
8,14538441958	-5597975,0
8,16253846914	-5606589,0
8,1796905203	-5612630,0
8,19684263139	-5615873,0
8,21399377321	-5616760,0
8,23114291681	-5616698,0
8,24829212016	-5617112,0
8,26544035424	-5619075,0
8,28258659027	-5622905,0
8,29973288588	-5627070,0
8,31687821223	-5630346,0
8,33402154069	-5632851,0
8,35116492856	-5634097,0
8,36830734717	-5632843,0
8,38544776807	-5628834,0
8,4025882482	-5623905,0
8,41972775907	-5621049,0
8,4368652724	-5621224,0
8,4540028448	-5623849,0
8,47113944792	-5627480,0
8,48827405369	-5630781,0
8,50540871835	-5633139,0
8,52254241373	-5634874,0
8,53967411194	-5636200,0
8,55680586886	-5638476,0
8,5739366565	-5643013,0
8,59106544715	-5649839,0
8,60819429632	-5658583,0
8,62532217623	-5668651,0
8,64244805931	-5678524,0
8,65957400074	-5687467,0
8,67669897291	-5694873,0
8,69382194842	-5700068,0
8,71094498212	-5703057,0
8,72806704655	-5704335,0
8,7451871145	-5704750,0
8,76230724046	-5705349,0
8,77942639715	-5706705,0
8,79654355753	-5708646,0
8,81366077575	-5711358,0
8,8307770247	-5715149,0
8,84789127752	-5719832,0
8,865005588	-5725502,0
8,88211892921	-5731833,0
8,89923027446	-5738178,0
8,9163416772	-5744036,0
8,93345211067	-5748995,0
8,95056054836	-5753801,0
8,96766904336	-5758924,0
8,9847765691	-5765639,0
9,00188209922	-5774139,0
9,01898768648	-5783934,0
9,03609230448	-5793537,0
9,05319492704	-5801497,0
9,07029760656	-5808546,0
9,08739931681	-5814988,0
9,10449903181	-5820420,0
9,12159880359	-5825294,0
9,13869760611	-5829741,0
9,15579441354	-5833575,0
9,17289127758	-5837147,0
9,18998717236	-5841380,0
9,20708107222	-5847061,0
9,22417502853	-5853805,0
9,24126801556	-5859972,0
9,25835900786	-5865143,0
9,27545005643	-5869593,0
9,29254013573	-5872725,0
9,30962822046	-5872955,0
9,32671636129	-5869858,0
9,34380353285	-5864734,0
9,36088871002	-5859549,0
9,3779739431	-5856611,0
9,39505820692	-5857789,0
9,41214047653	-5862142,0
9,42922280188	-5867902,0
9,44630415796	-5873897,0
9,46338352	-5880690,0
9,48046293761	-5889826,0
9,49754138595	-5901286,0
9,51461784042	-5912873,0
9,53169435029	-5922144,0
9,54876989089	-5928382,0
9,56584343781	-5931466,0
9,58291703994	-5930806,0
9,5999896728	-5926236,0
9,61706031215	-5918647,0
9,63413100654	-5909684,0
9,65120073166	-5900395,0
9,66826846344	-5890801,0
9,68533625009	-5881418,0
9,70240306748	-5873423,0
9,71946789169	-5868923,0
9,73653277061	-5869452,0
9,75359668025	-5873596,0
9,7706585969	-5879312,0
9,78772056808	-5886491,0
9,80478156998	-5895119,0
9,82184057907	-5904612,0
9,8388996425	-5913943,0
9,85595773667	-5922170,0
9,87301383819	-5928711,0
9,89006999389	-5934127,0
9,90712518031	-5939142,0
9,92417837427	-5944764,0
9,94123162223	-5951018,0
9,95828390091	-5957244,0
9,97533418731	-5963164,0
9,99238452752	-5968758,0
10,0094338985	-5973848,0
10,0264812773	-5978326,0
10,0435287098	-5983060,0
10,060575173	-5987679,0
10,0776196443	-5990956,0
10,094664169	-5992393,0
10,1117077245	-5991622,0
10,1287492882	-5989260,0
10,1457909052	-5986574,0
10,1628315529	-5984521,0
10,179870209	-5984532,0
10,1969089183	-5988240,0
10,2139466583	-5995673,0
10,2309824068	-6005542,0
10,2480182084	-6016029,0
10,2650530406	-6026038,0
10,2820858816	-6033661,0
10,2991187754	-6037483,0
10,3161506999	-6038320,0
10,3331806334	-6036947,0
10,3502106194	-6033983,0
10,3672396362	-6030943,0
10,384266662	-6029564,0
10,4012937403	-6030062,0
10,4183198494	-6031870,0
10,4353439677	-6035192,0
10,4523681382	-6040387,0
10,4693913395	-6047811,0
10,4864125503	-6058164,0
10,5034338131	-6070392,0
10,5204541067	-6081361,0
10,5374724099	-6088830,0
10,5544907649	-6092306,0
10,5715081508	-6093852,0
10,5885235464	-6096115,0
10,6055389937	-6100212,0
10,6225534718	-6106464,0
10,6395659598	-6113736,0
10,6565784994	-6119974,0
10,6735900698	-6124347,0
10,6905996503	-6127779,0
10,7076092821	-6131090,0
10,7246179447	-6134068,0
10,7416246177	-6136402,0
10,7586313418	-6137766,0
10,7756370966	-6138156,0
10,792640862	-6136589,0
10,8096446784	-6132099,0
10,8266475255	-6124905,0
10,8436483833	-6116437,0
10,860649292	-6108794,0
10,8776492313	-6103776,0
10,8946471816	-6101212,0
10,9116451825	-6101375,0
10,9286422141	-6105525,0
10,9456372568	-6114366,0
10,9626323499	-6127129,0
10,9796264739	-6142149,0
10,9966186089	-6157912,0
11,0136107944	-6172993,0
11,0306020105	-6185644,0
11,0475912381	-6194291,0
11,0645805158	-6197967,0
11,0815688242	-6196746,0
11,0985551442	-6191987,0
11,1155415141	-6185479,0
11,1325269148	-6177198,0
11,1495103272	-6168333,0
11,1664937894	-6161634,0
11,1834762824	-6157815,0
11,2004567872	-6157253,0
11,2174373417	-6159039,0
11,2344169269	-6160492,0
11,2513945242	-6160261,0
11,2683721709	-6158865,0
11,2853488484	-6157575,0
11,3023235381	-6158209,0
11,3192982771	-6161381,0
11,3362720468	-6167422,0
11,3532438289	-6176726,0
11,3702156602	-6188863,0
11,3871865222	-6201793,0
11,4041553968	-6213626,0
11,4211243203	-6223156,0
11,4380922745	-6230946,0
11,4550582415	-6238337,0
11,4720242573	-6245798,0
11,4889893038	-6253105,0
11,5059523633	-6259737,0
11,5229154713	-6265701,0
11,5398776101	-6272026,0
11,556837762	-6279283,0
11,5737979623	-6287771,0
11,5907571933	-6296992,0
11,6077144376	-6306603,0
11,6246717302	-6315805,0
11,6416280535	-6322918,0
11,6585823902	-6326216,0
11,6755367751	-6325456,0
11,6924901906	-6321941,0
11,7094416198	-6317958,0
11,7263930969	-6314922,0
11,7433436047	-6312516,0
11,7602921263	-6311238,0
11,7772406957	-6311705,0
11,7941882957	-6312247,0
11,8111339098	-6311617,0
11,8280795714	-6311190,0
11,8450242637	-6311847,0
11,8619669702	-6314095,0
11,8789097241	-6318830,0
11,8958515087	-6326081,0
11,9127913076	-6335706,0
11,9297311538	-6346163,0
11,9466700306	-6356167,0
11,963606922	-6364661,0
11,9805438604	-6370483,0
11,9974798295	-6372698,0
12,0144138133	-6371206,0
12,0313478439	-6367725,0
12,0482809053	-6363283,0
12,0652119816	-6358050,0
12,0821431045	-6352965,0
12,0990732581	-6349162,0
12,1160014268	-6347737,0
12,1329296419	-6350059,0
12,1498568878	-6355566,0
12,1667821489	-6362148,0
12,1837074564	-6368003,0
12,2006317945	-6372089,0
12,2175541481	-6374956,0
12,2344765478	-6378430,0
12,2513979782	-6382864,0
12,2683174242	-6387367,0
12,2852369161	-6389948,0
12,3021554388	-6390084,0
12,3190719772	-6390268,0
12,3359885614	-6393339,0
12,3529041764	-6400134,0
12,3698178072	-6410836,0
12,3867314837	-6423835,0
12,4036441909	-6436434,0
12,4205549142	-6447685,0
12,4374656829	-6456992,0
12,4543754824	-6463957,0
12,4712832981	-6467532,0
12,4881911591	-6467624,0
12,5050980508	-6465079,0
12,522002959	-6460683,0
12,5389079122	-6455088,0
12,5558118962	-6448679,0
12,5727138968	-6441845,0
12,5896159423	-6436118,0
12,6065170186	-6433963,0
12,6234161116	-6437068,0
12,6403152494	-6445839,0
12,6572134179	-6459016,0
12,6741096033	-6473837,0
12,6910058334	-6487301,0
12,7079010941	-6497170,0
12,724794372	-6503446,0
12,7416876943	-6507570,0
12,7585800474	-6511373,0
12,7754704177	-6515184,0
12,7923608322	-6518835,0
12,8092502775	-6521116,0
12,8261377403	-6520895,0
12,8430252471	-6518935,0
12,8599117847	-6517938,0
12,8767963399	-6519459,0
12,893680939	-6524195,0
12,9105645688	-6532138,0
12,9274462164	-6542349,0
12,9443279077	-6553850,0
12,9612086298	-6566433,0
12,9780873699	-6579063,0
12,9949661535	-6589396,0
13,0118439678	-6596017,0
13,0287198003	-6599346,0
13,0455956762	-6601388,0
13,0624705828	-6603803,0
13,0793435077	-6606633,0
13,0962164758	-6608544,0
13,1130884747	-6608537,0
13,1299584921	-6605756,0
13,1468285525	-6600901,0
13,1636976436	-6595062,0
13,1805647534	-6590185,0
13,197431906	-6586984,0
13,2142980894	-6584973,0
13,2311622917	-6584884,0
13,2480265366	-6588029,0
13,2648898122	-6594181,0
13,2817511069	-6601831,0
13,298612444	-6608927,0
13,3154728119	-6614383,0
13,3323311991	-6618660,0
13,3491896285	-6623129,0
13,3660470887	-6628694,0
13,3829025682	-6637325,0
13,3997580899	-6649060,0
13,4166126423	-6662245,0
13,4334652143	-6674236,0
13,4503178282	-6682991,0
13,4671694729	-6688361,0
13,4840191374	-6692052,0
13,5008688436	-6695275,0
13,5177175805	-6697356,0
13,5345643374	-6697879,0
13,5514111358	-6698138,0
13,568256965	-6699424,0
13,5851008143	-6702670,0
13,6019447051	-6708073,0
13,6187876265	-6715138,0
13,6356285682	-6723398,0
13,6524695512	-6732572,0
13,669309565	-6742006,0
13,6861475991	-6750516,0
13,7029856744	-6757221,0
13,7198227804	-6762368,0
13,736657907	-6766963,0
13,7534930745	-6771318,0
13,7703272727	-6774838,0
13,7871594918	-6776695,0
13,8039917515	-6777440,0
13,820823042	-6778871,0
13,8376523535	-6781278,0
13,8544817055	-6784978,0
13,8713100883	-6788932,0
13,8881364922	-6792114,0
13,9049629365	-6794526,0
13,9217884115	-6797243,0
13,9386119079	-6801228,0
13,9554354444	-6806754,0
13,9722580117	-6813115,0
13,9890786005	-6819441,0
14,0058992293	-6824648,0
14,0227188889	-6828791,0
14,0395365701	-6832319,0
14,0563542911	-6834797,0
14,0731710429	-6835816,0
14,0899858166	-6836254,0
14,1068006299	-6837521,0
14,123614474	-6840908,0
14,1404263401	-6846318,0
14,1572382457	-6853032,0
14,174049182	-6859612,0
14,1908581405	-6865560,0
14,2076671384	-6869635,0
14,224475167	-6871240,0
14,2412812179	-6871277,0
14,2580873081	-6871225,0
14,2748924289	-6872354,0
14,2916955723	-6874323,0
14,3084987547	-6876992,0
14,3253009678	-6880136,0
14,3421012036	-6883738,0
14,3589014783	-6886258,0
14,3757007836	-6886925,0
14,3924981119	-6885383,0
14,4092954788	-6881649,0
14,4260918764	-6875968,0
14,4428862971	-6868925,0
14,4596807563	-6861074,0
14,4764742462	-6852482,0
14,4932657593	-6843243,0
14,5100573107	-6835293,0
14,5268478929	-6830411,0
14,5436364984	-6830140,0
14,5604251421	-6834092,0
14,5772128165	-6841806,0
14,5939985145	-6853382,0
14,6107842505	-6868599,0
14,6275690172	-6886925,0
14,6443518076	-6905692,0
14,6611346358	-6921411,0
14,6779164947	-6932920,0
14,6946963776	-6940503,0
14,7114762981	-6944285,0
14,7282552493	-6945339,0
14,7450322246	-6944554,0
14,7618092373	-6942975,0
14,7785852808	-6941866,0
14,7953593485	-6942315,0
14,8121334535	-6943959,0
14,8289065892	-6945793,0
14,8456777494	-6948441,0
14,8624489466	-6952921,0
14,8792191746	-6960147,0
14,8959874272	-6969956,0
14,9127557167	-6982111,0
14,929523037	-6995519,0
14,946288382	-7006488,0
14,9630537638	-7013258,0
14,9798181763	-7016821,0
14,9965806138	-7018408,0
15,0133430878	-7018736,0
15,0301045926	-7018391,0
15,0468641225	-7018364,0
15,0636236888	-7018802,0
15,0803822858	-7019400,0
15,0971389082	-7021208,0
15,1138955667	-7025452,0
15,130651256	-7031109,0
15,1474049708	-7035687,0
15,1641587216	-7037857,0
15,1809115031	-7038295,0
15,1976623104	-7037279,0
15,2144131534	-7035461,0
15,2311630273	-7034222,0
15,2479109269	-7034713,0
15,2646588622	-7035936,0
15,2814058283	-7036133,0
15,2981508204	-7034977,0
15,314895848	-7033610,0
15,3316399063	-7033267,0
15,3483819909	-7034024,0
15,3651241107	-7035929,0
15,3818652613	-7039172,0
15,3986044383	-7043470,0
15,4153436504	-7048252,0
15,4320818932	-7053469,0
15,4488181626	-7058042,0
15,465554467	-7061505,0
15,4822898021	-7063842,0
15,4990231639	-7066206,0
15,5157565606	-7070134,0
15,532488988	-7075166,0
15,5492194422	-7080698,0
15,5659499311	-7085924,0
15,5826794508	-7090065,0
15,5994069975	-7094722,0
15,6161345786	-7101263,0
15,6328611905	-7108831,0
15,6495858297	-7117019,0
15,6663105031	-7125887,0
15,6830342072	-7134358,0
15,6997559388	-7139224,0
15,7164777045	-7139356,0
15,7331985009	-7136896,0
15,7499173249	-7136043,0
15,7666361828	-7139412,0
15,7833540715	-7146249,0
15,800069988	-7155476,0
15,8167859382	-7165592,0
15,8335009191	-7174883,0
15,850213928	-7182249,0
15,8669269705	-7186608,0
15,8836390436	-7186785,0
15,900349145	-7182653,0
15,9170592797	-7175992,0
15,9337684451	-7170519,0
15,9504756389	-7169546,0
15,9671828659	-7173817,0
15,9838891236	-7181926,0
16,0005934098	-7192477,0
16,017297729	-7203488,0
16,034001079	-7213442,0
16,0507024576	-7221878,0
16,0674038691	-7227836,0
16,0841043114	-7230752,0
16,1008027824	-7231976,0
16,1175012862	-7233320,0
16,1341988207	-7235435,0
16,1508943842	-7237533,0
16,1675899802	-7238699,0
16,184284607	-7238249,0
16,2009772629	-7236947,0
16,2176699512	-7235799,0
16,2343616702	-7236782,0
16,2510514186	-7241135,0
16,2677411991	-7248440,0
16,2844300104	-7257471,0
16,3011168512	-7266948,0
16,317803724	-7275889,0
16,3344896276	-7284609,0
16,3511735608	-7293513,0
16,3678575259	-7302718,0
16,3845405217	-7310895,0
16,4012215473	-7316083,0
16,4179026047	-7317938,0
16,4345826927	-7317880,0
16,4512608108	-7318009,0
16,4679389604	-7319379,0
16,4846161408	-7322014,0
16,5012913513	-7325889,0
16,5179665931	-7331523,0
16,5346408657	-7338620,0
16,5513131687	-7345906,0
16,5679855028	-7353433,0
16,5846568677	-7361270,0
16,6013262631	-7368094,0
16,6179956895	-7372041,0
16,6346641466	-7371590,0
16,6513306344	-7367054,0
16,667997153	-7359716,0
16,6846627024	-7350467,0
16,7013262827	-7341453,0
16,7179898936	-7334063,0
16,7346525352	-7328837,0
16,7513132079	-7326423,0
16,7679739111	-7327868,0
16,784633645	-7333650,0
16,8012914101	-7342703,0
16,8179492055	-7352091,0
16,8346060317	-7358438,0
16,8512608893	-7361431,0
16,867915777	-7362450,0
16,8845696954	-7363205,0
16,9012216454	-7364742,0
16,9178736253	-7366168,0
16,934524636	-7366608,0
16,9511736785	-7366546,0
16,9678227507	-7367307,0
16,9844708536	-7368191,0
17,0011169885	-7368629,0
17,0177631529	-7369275,0
17,0344083481	-7370994,0
17,0510515755	-7374280,0
17,0676948322	-7379045,0
17,0843371196	-7384546,0
17,1009774394	-7389248,0
17,1176177884	-7392341,0
17,1342571681	-7393704,0
17,1508945803	-7394169,0
17,1675320215	-7395416,0
17,1841684935	-7398515,0
17,2008029981	-7403672,0
17,2174375316	-7411386,0
17,2340710959	-7421318,0
17,2507026929	-7433014,0
17,2673343187	-7445869,0
17,2839649752	-7457848,0
17,3005936647	-7468462,0
17,3172223827	-7478141,0
17,3338501315	-7486294,0
17,3504759134	-7492433,0
17,3671017237	-7497477,0
17,3837265647	-7502480,0
17,4003494391	-7507820,0
17,4169723417	-7512743,0
17,4335942749	-7515813,0
17,4502142417	-7517183,0
17,4668342366	-7518192,0
17,4834532621	-7519317,0
17,5000703213	-7519750,0
17,5166874084	-7518590,0
17,5333035262	-7517274,0
17,5499176779	-7517221,0
17,5665318572	-7519345,0
17,5831450673	-7523192,0
17,5997563114	-7527276,0
17,616367583	-7530082,0
17,6329778853	-7531277,0
17,6495862219	-7531634,0
17,6661945857	-7532346,0
17,6828019803	-7534447,0
17,6994074093	-7538870,0
17,7160128654	-7545894,0
17,7326173522	-7553987,0
17,7492198736	-7560881,0
17,765822422	-7564406,0
17,7824240011	-7564459,0
17,799023615	-7562135,0
17,8156232556	-7558901,0
17,832221927	-7556593,0
17,8488186333	-7556631,0
17,8654153662	-7558986,0
17,8820111298	-7561788,0
17,8986049285	-7564700,0
17,9151987537	-7569169,0
17,9317916096	-7575690,0
17,9483825007	-7585279,0
17,9649734181	-7597516,0
17,9815633663	-7610443,0
17,9981513499	-7622633,0
18,0147393595	-7633355,0
18,0313264	-7641629,0
18,047911476	-7647612,0
18,0644965779	-7650916,0
18,0810807106	-7651782,0
18,0976628791	-7651270,0
18,1142450733	-7650521,0
18,1308262982	-7650626,0
18,1474055591	-7652378,0
18,1639848455	-7656286,0
18,1805631627	-7661930,0
18,1971395161	-7668355,0
18,2137158948	-7675320,0
18,2302913042	-7682944,0
18,24686475	-7690452,0
18,263438221	-7696122,0
18,2800107227	-7699267,0
18,2965812609	-7700689,0
18,3131518242	-7701935,0
18,3297214181	-7703622,0
18,3462890488	-7704885,0
18,3628567043	-7705292,0
18,3794233905	-7706214,0
18,3959881136	-7708883,0
18,4125528613	-7714027,0
18,4291166398	-7721106,0
18,4456784554	-7728321,0
18,4622402954	-7733845,0
18,4788011661	-7735381,0
18,4953600741	-7733369,0
18,5119190064	-7729011,0
18,5284769694	-7724382,0
18,5450329698	-7721574,0
18,5615889943	-7721091,0
18,5781440496	-7722232,0
18,5946971424	-7724419,0
18,6112502592	-7726520,0
18,6278024067	-7728275,0
18,644352592	-7730442,0
18,6609028011	-7732890,0
18,6774520409	-7736076,0
18,6939993186	-7740878,0
18,7105466199	-7747397,0
18,7270929519	-7755302,0
18,7436373221	-7764378,0
18,7601817156	-7773831,0
18,77672514	-7782288,0
18,7932666025	-7788631,0
18,8098080884	-7793752,0
18,826348605	-7798347,0
18,84288716	-7802108,0
18,8594257381	-7804946,0
18,8759633469	-7807676,0
18,8924989943	-7811044,0
18,9090346647	-7814489,0
18,9255693658	-7818246,0
18,9421021057	-7822018,0
18,9586348683	-7825180,0
18,9751666617	-7828104,0
18,991696494	-7832034,0
19,0082263489	-7837471,0
19,0247552345	-7844468,0
19,0412821592	-7852091,0
19,0578091064	-7858879,0
19,0743350843	-7863916,0
19,0908591014	-7866364,0
19,1073831408	-7866556,0
19,123906211	-7865272,0
19,1404273206	-7863495,0
19,1569484523	-7863123,0
19,1734686147	-7864695,0
19,1899868167	-7868396,0
19,2065050406	-7874516,0
19,2230222953	-7882548,0
19,2395375898	-7892774,0
19,256052906	-7904201,0
19,2725672529	-7915953,0
19,2890796398	-7926758,0
19,3055920483	-7936357,0
19,3221034875	-7943803,0
19,3386129668	-7948211,0
19,3551224675	-7950363,0
19,371630999	-7951531,0
19,3881375708	-7953922,0
19,4046441637	-7958151,0
19,4211497874	-7962482,0
19,4376534517	-7965551,0
19,4541571369	-7966353,0
19,4706598529	-7963983,0
19,4871606095	-7958746,0
19,503661387	-7953015,0
19,5201611953	-7949302,0
19,5366590443	-7948974,0
19,5531569141	-7951019,0
19,5696538146	-7953413,0
19,5861487561	-7956735,0
19,6026437181	-7962235,0
19,6191377109	-7969965,0
19,6356297448	-7978658,0
19,6521217991	-7987534,0
19,6686128841	-7996501,0
19,6851020105	-8005621,0
19,7015911571	-8014089,0
19,7180793343	-8020567,0
19,7345655532	-8024992,0
19,751051792	-8027756,0
19,7675370615	-8030866,0
19,7840203728	-8036102,0
19,8005037038	-8042667,0
19,8169860656	-8049433,0
19,8334664693	-8054422,0
19,8499468927	-8056683,0
19,8664263467	-8056335,0
19,8829038429	-8055060,0
19,8993813584	-8054571,0
19,9158579048	-8054814,0
19,9323324933	-8055404,0
19,9488071012	-8056043,0
19,9652807397	-8056668,0
19,9817524208	-8056903,0
19,9982241209	-8055994,0
20,0146948517	-8053785,0
20,0311636251	-8051283,0
20,0476324175	-8048882,0
20,0641002406	-8047315,0
20,0805661065	-8048133,0
20,0970319911	-8051487,0
20,1134969065	-8056298,0
20,1299598648	-8061967,0
20,1464228417	-8068480,0
20,1628848493	-8076712,0
20,1793449	-8085671,0
20,1958049692	-8094220,0
20,2122640691	-8102919,0
20,2287212122	-8111888,0
20,2451783737	-8120277,0
20,2616345658	-8125818,0
20,2780888014	-8126647,0
20,2945430551	-8124048,0
20,3109963395	-8120701,0
20,3274476675	-8118449,0
20,3438990135	-8117886,0
20,3603493901	-8119734,0
20,3767978106	-8124009,0
20,3932462488	-8130506,0
20,4096937177	-8139071,0
20,4261392307	-8146745,0
20,4425847611	-8151033,0
20,4590293223	-8151723,0
20,4754719277	-8150114,0
20,4919145504	-8148600,0
20,5083562038	-8149301,0
20,5247959016	-8154003,0
20,5412356166	-8162346,0
20,5576743623	-8172432,0
20,5741111525	-8182594,0
20,5905479598	-8192327,0
20,6069837977	-8201643,0
20,6234176804	-8210889,0
20,6398515799	-8220802,0
20,6562845101	-8230358,0
20,6727154852	-8238384,0
20,689146477	-8245131,0
20,7055764995	-8250598,0
20,722004567	-8253253,0
20,738432651	-8253407,0
20,7548597658	-8252276,0
20,7712849257	-8250298,0
20,787710102	-8247909,0
20,804134309	-8246850,0
20,8205565614	-8247533,0
20,83697883	-8248831,0
20,8534001292	-8249535,0
20,8698194741	-8249667,0
20,8862388349	-8250009,0
20,9026572264	-8251433,0
20,9190736637	-8253944,0
20,9354901167	-8257196,0
20,9519056005	-8260860,0
20,9683191302	-8264340,0
20,9847326756	-8266942,0
21,0011452516	-8267829,0
21,0175558738	-8266926,0
21,0339665113	-8264439,0
21,0503761797	-8261563,0
21,0667838942	-8259659,0
21,0831916241	-8260058,0
21,0995983847	-8263394,0
21,1160031917	-8269204,0
21,1324080138	-8277326,0
21,1488118666	-8287124,0
21,1652137661	-8297022,0
21,1816156804	-8305740,0
21,1980166255	-8312683,0
21,2144156174	-8318289,0
21,230814624	-8324075,0
21,2472126614	-8331212,0
21,2636087457	-8339849,0
21,2800048446	-8349066,0
21,2963999742	-8356948,0
21,312793151	-8360654,0
21,3291863421	-8359415,0
21,345578564	-8355333,0
21,3619688332	-8350026,0
21,3783591166	-8345076,0
21,3947484307	-8342394,0
21,4111357924	-8342931,0
21,427523168	-8347408,0
21,4439095744	-8355862,0
21,4602940285	-8367556,0
21,4766784964	-8381657,0
21,4930619951	-8396255,0
21,5094435416	-8410097,0
21,5258251018	-8423296,0
21,5422056927	-8436448,0
21,5585843316	-8448495,0
21,5749629841	-8457574,0
21,5913406673	-8461701,0
21,6077163986	-8460972,0
21,6240921433	-8455793,0
21,6404669188	-8447973,0
21,6568397426	-8439980,0
21,6732125796	-8434417,0
21,6895844473	-8432508,0
21,7059543635	-8434048,0
21,7223242927	-8438391,0
21,7386932527	-8443923,0
21,7550602614	-8448007,0
21,7714272829	-8450170,0
21,7877933351	-8451881,0
21,8041574362	-8454368,0
21,82052155	-8458206,0
21,8368846944	-8464493,0
21,853245888	-8473651,0
21,869607094	-8483998,0
21,8859673307	-8492725,0
21,9023256167	-8499592,0
21,918683915	-8504213,0
21,935041244	-8506374,0
21,9513966224	-8506703,0
21,967752013	-8505410,0
21,9841064342	-8503114,0
22,0004589051	-8500331,0
22,0168113879	-8497783,0
22,0331629014	-8496650,0
22,0495124647	-8497713,0
22,0658620397	-8501074,0
22,0822106455	-8505415,0
22,0985573013	-8509450,0
22,1149039686	-8513038,0
22,1312496666	-8516905,0
22,1475934148	-8522436,0
22,1639371744	-8529999,0
22,1802799647	-8537974,0
22,1966208053	-8544831,0
22,2129616571	-8549422,0
22,2293015397	-8551286,0
22,2456394727	-8552329,0
22,2619774168	-8554344,0
22,2783143916	-8558368,0
22,2946494171	-8564936,0
22,3109844535	-8573961,0
22,3273185206	-8584546,0
22,3436506385	-8596552,0
22,3599827671	-8608889,0
22,3763139264	-8620226,0
22,3926431368	-8629724,0
22,4089723576	-8637241,0
22,4253006093	-8641848,0
22,441626912	-8643486,0
22,4579532252	-8643965,0
22,474278569	-8643457,0
22,4906019642	-8640519,0
22,5069253697	-8635573,0
22,5232478058	-8629802,0
22,5395682934	-8623217,0
22,5558887911	-8615877,0
22,5722083195	-8608426,0
22,5885258996	-8602476,0
22,6048434895	-8600728,0
22,6211601102	-8605042,0
22,6374747827	-8614816,0
22,6537894648	-8627655,0
22,6701031778	-8641232,0
22,6864149427	-8653931,0
22,7027267172	-8665717,0
22,7190375223	-8677998,0
22,7353463797	-8690144,0
22,7516552464	-8700157,0
22,7679631439	-8707680,0
22,7842690937	-8713070,0
22,8005750526	-8717438,0
22,8168800423	-8721228,0
22,8331830846	-8725389,0
22,8494861358	-8730691,0
22,8657882178	-8736537,0
22,8820883525	-8742869,0
22,898388496	-8747840,0
22,9146876702	-8749049,0
22,9309848973	-8745088,0
22,9472821331	-8736889,0
22,9635783995	-8727330,0
22,9798727191	-8719484,0
22,9961670471	-8713582,0
23,0124604059	-8709188,0
23,0287518178	-8706681,0
23,0450432381	-8705673,0
23,0613336891	-8705534,0
23,0776221935	-8706354,0
23,0939107061	-8707629,0
23,1101982493	-8708168,0
23,1264838462	-8709523,0
23,142769451	-8714018,0
23,1590540865	-8721286,0
23,1753367758	-8730201,0
23,1916194729	-8740752,0
23,2079012007	-8752035,0
23,2241809824	-8762807,0
23,2404607717	-8772806,0
23,2567395918	-8781935,0
23,2730164659	-8790008,0
23,2892933475	-8797987,0
23,3055692598	-8805794,0
23,3218432264	-8812746,0
23,3381172003	-8819099,0
23,3543902048	-8825640,0
23,3706612639	-8832424,0
23,38693233	-8839608,0
23,4032024268	-8846560,0
23,4194705783	-8853673,0
23,4357387366	-8862147,0
23,4520059257	-8871388,0
23,4682711696	-8880366,0
23,4845364202	-8887942,0
23,5008007016	-8892638,0
23,5170630379	-8893763,0
23,5333253808	-8892648,0
23,5495867544	-8891501,0
23,5658461832	-8892146,0
23,5821056183	-8895266,0
23,5983640842	-8899797,0
23,6146206054	-8903611,0
23,6308771328	-8905762,0
23,647132691	-8906030,0
23,6633863046	-8904720,0
23,6796399243	-8902635,0
23,6958925747	-8900093,0
23,7121432808	-8896633,0
23,7283939927	-8891666,0
23,7446437353	-8886064,0
23,7608915339	-8881449,0
23,777139338	-8879004,0
23,793386173	-8879065,0
23,8096310639	-8882386,0
23,8258759604	-8889314,0
23,8421198875	-8898499,0
23,8583618709	-8908467,0
23,8746038596	-8917988,0
23,8908448791	-8927112,0
23,9070839549	-8936397,0
23,9233230359	-8946110,0
23,9395611476	-8955462,0
23,9557973158	-8963571,0
23,972033489	-8970162,0
23,988268693	-8974491,0
24,0045019537	-8976012,0
24,0207352192	-8974913,0
24,0369675154	-8972777,0
24,0531978685	-8972293,0
24,0694282263	-8974238,0
24,0856576148	-8978403,0
24,1018850603	-8983444,0
24,1181125103	-8987015,0
24,1343389911	-8988495,0
24,1505635291	-8989420,0
24,1667880713	-8990737,0
24,1830116444	-8993107,0
24,1992332748	-8997023,0
24,2154549093	-9002054,0
24,2316755746	-9007104,0
24,2478942975	-9010481,0
24,2641130242	-9012505,0
24,2803307818	-9015072,0
24,2965465971	-9019342,0
24,3127624161	-9025138,0
24,3289772659	-9031309,0
24,3451901737	-9035956,0
24,361403085	-9039021,0
24,377615027	-9041839,0
24,3938250272	-9045921,0
24,4100350308	-9051094,0
24,4262440651	-9057034,0
24,4424511577	-9063960,0
24,4586582535	-9072022,0
24,4748643801	-9078960,0
24,4910685651	-9080816,0
24,5072727532	-9077420,0
24,5234759721	-9071711,0
24,5396772495	-9066530,0
24,5558785299	-9064549,0
24,572078841	-9066009,0
24,5882772109	-9069676,0
24,6044755835	-9074213,0
24,6206729869	-9078957,0
24,6368684492	-9084248,0
24,6530639141	-9089475,0
24,6692584097	-9094198,0
24,6854509645	-9098322,0
24,7016435216	-9101357,0
24,7178351095	-9102725,0
24,7340247567	-9102606,0
24,7502144061	-9101544,0
24,7664030863	-9099878,0
24,7825898259	-9098068,0
24,7987765676	-9096893,0
24,81496234	-9096405,0
24,8311461721	-9098795,0
24,847330006	-9104588,0
24,8635128706	-9112181,0
24,8796937952	-9120129,0
24,8958747213	-9127530,0
24,9120546783	-9134549,0
24,9282326952	-9141726,0
24,9444107137	-9150163,0
24,9605877628	-9159397,0
24,9767628722	-9168529,0
24,9929379829	-9175152,0
25,0091121244	-9176553,0
25,0252843262	-9171902,0
25,0414565292	-9163645,0
25,0576277629	-9155501,0
25,0737970571	-9150481,0
25,0899663524	-9150195,0
25,1061346783	-9154553,0
25,122301065	-9162511,0
25,1384674525	-9173300,0
25,1546328707	-9186046,0
25,1707963499	-9198535,0
25,1869598296	-9209181,0
25,2031223401	-9218878,0
25,2192829117	-9228299,0
25,2354434837	-9236372,0
25,2516030864	-9242038,0
25,2677607504	-9245061,0
25,2839184147	-9246541,0
25,3000751097	-9246726,0
25,3162298661	-9246596,0
25,3323846227	-9248019,0
25,3485384099	-9251462,0
25,3646902588	-9256962,0
25,3808421076	-9264435,0
25,3969929871	-9273145,0
25,4131419284	-9282194,0
25,4292908695	-9290669,0
25,4454388413	-9297800,0
25,461584875	-9303035,0
25,4777309083	-9306672,0
25,4938759724	-9308526,0
25,5100190986	-9308006,0
25,5261622241	-9305776,0
25,5423043804	-9303533,0
25,5584445991	-9302362,0
25,5745848169	-9303325,0
25,5907240655	-9307365,0
25,6068613765	-9315079,0
25,6229986866	-9326065,0
25,6391350274	-9338104,0
25,6552694309	-9349458,0
25,6714038333	-9359900,0
25,6875372664	-9369693,0
25,7036687623	-9377062,0
25,7198002569	-9380543,0
25,7359307823	-9381532,0
25,7520593706	-9381661,0
25,7681879575	-9381338,0
25,7843155751	-9380809,0
25,8004412559	-9380542,0
25,816566935	-9381002,0
25,8326916449	-9383462,0
25,8488144181	-9388208,0
25,8649371895	-9393382,0
25,8810589917	-9397203,0
25,8971788573	-9399631,0
25,913298721	-9401832,0
25,9294176154	-9404906,0
25,9455345735	-9410278,0
25,9616515294	-9417986,0
25,9777675161	-9426567,0
25,9938815666	-9435389,0
26,0099956148	-9443986,0
26,0261086937	-9451028,0
26,0422198367	-9454872,0
26,0583309771	-9454900,0
26,0744411483	-9453181,0
26,0905493837	-9450778,0
26,1066576164	-9448853,0
26,1227648798	-9447898,0
26,1388702077	-9446878,0
26,1549755326	-9445671,0
26,1710798883	-9446118,0
26,1871823086	-9449330,0
26,2032847258	-9454915,0
26,2193861738	-9462269,0
26,2354856865	-9469947,0
26,251585196	-9476435,0
26,2676837362	-9482029,0
26,2837803413	-9486831,0
26,2998769431	-9490191,0
26,3159725756	-9492882,0
26,3320662731	-9497065,0
26,3481599671	-9503181,0
26,3642526919	-9509157,0
26,3803434819	-9513592,0
26,3964342682	-9516971,0
26,4125240852	-9520658,0
26,4286119676	-9524595,0
26,4446998461	-9527838,0
26,4607867554	-9530428,0
26,4768717303	-9533576,0
26,4929567011	-9538873,0
26,5090407026	-9546385,0
26,5251227699	-9554715,0
26,541204833	-9562702,0
26,5572859268	-9569101,0
26,5733650865	-9572277,0
26,5894442418	-9571792,0
26,6055224279	-9568230,0
26,6215986801	-9562933,0
26,6376749276	-9557608,0
26,6537502059	-9553579,0
26,6698235506	-9551777,0
26,6858968904	-9552658,0
26,701969261	-9555963,0
26,718039698	-9560895,0
26,7341101301	-9566368,0
26,7501795929	-9571526,0
26,7662471224	-9576114,0
26,7823146468	-9580892,0
26,7983812019	-9587493,0
26,8144458238	-9596721,0
26,8305104404	-9607439,0
26,8465740878	-9617372,0
26,8626358021	-9625684,0
26,878697511	-9631887,0
26,8947582506	-9636574,0
26,9108170574	-9640494,0
26,9268758586	-9643742,0
26,9429336904	-9646499,0
26,9589895897	-9649269,0
26,9750454831	-9652274,0
26,9911004072	-9656165,0
27,0071533989	-9661401,0
27,0232063845	-9668114,0
27,0392584009	-9675735,0
27,055308485	-9684125,0
27,0713585629	-9693286,0
27,0874076716	-9703402,0
27,1034548481	-9713487,0
27,1195020183	-9722456,0
27,1355482192	-9728613,0
27,1515924882	-9730840,0
27,1676367507	-9728038,0
27,1836800438	-9721285,0
27,1997214052	-9712705,0
27,2157627599	-9704321,0
27,2318031454	-9698924,0
27,2478415992	-9698334,0
27,2638800462	-9701835,0
27,2799175239	-9707514,0
27,2959530702	-9712753,0
27,3119886094	-9715721,0
27,3280231793	-9717718,0
27,3440558181	-9720019,0
27,3600884495	-9723337,0
27,3761201118	-9727305,0
27,3921498429	-9731227,0
27,4081795667	-9735305,0
27,4242083211	-9738504,0
27,4402351447	-9739999,0
27,4562619607	-9739360,0
27,4722878075	-9737576,0
27,4883117235	-9736388,0
27,5043356318	-9736306,0
27,5203585708	-9737354,0
27,5363795792	-9740439,0
27,5524005797	-9746169,0
27,568420611	-9754725,0
27,5844387119	-9766659,0
27,6004568047	-9781800,0
27,6164739282	-9797264,0
27,6324891215	-9810431,0
27,6485043066	-9819698,0
27,6645185224	-9823884,0
27,6805308081	-9824394,0
27,6965430854	-9822784,0
27,7125543935	-9819734,0
27,7285637717	-9815781,0
27,7445731412	-9811713,0
27,7605815415	-9808847,0
27,7765880122	-9807196,0
27,792594474	-9806357,0
27,8085999666	-9807133,0
27,8246035297	-9810587,0
27,8406070837	-9816853,0
27,8566096686	-9824892,0
27,8726103241	-9832330,0
27,8886109704	-9837206,0
27,9046106475	-9838886,0
27,9206083955	-9838034,0
27,9366061341	-9836399,0
27,9526029034	-9834648,0
27,9685977438	-9832367,0
27,9845925747	-9829666,0
28,0005864363	-9827711,0
28,0165783691	-9826860,0
28,0325702922	-9827144,0
28,0485612461	-9829650,0
28,0645502713	-9835305,0
28,0805392867	-9843756,0
28,0965273328	-9853979,0
28,1125134505	-9864960,0
28,1284995582	-9876208,0
28,1444846966	-9886299,0
28,1604679067	-9893547,0
28,1764511066	-9897212,0
28,1924333373	-9897409,0
28,2084136398	-9894890,0
28,224393932	-9891892,0
28,2403732549	-9890177,0
28,2563506499	-9890524,0
28,2723280343	-9893558,0
28,2883044495	-9900260,0
28,3042789369	-9910176,0
28,3202534136	-9922783,0
28,336226921	-9937605,0
28,3521985009	-9953810,0
28,3681700699	-9969653,0
28,3841406696	-9983161,0
28,4001093419	-9991126,0
28,4160780031	-9991693,0
28,432045695	-9986329,0
28,4480114598	-9978658,0
28,4639772132	-9972192,0
28,4799419974	-9968605,0
28,4959048546	-9967978,0
28,5118677004	-9970271,0
28,5278295768	-9974984,0
28,5437895264	-9981524,0
28,5597494644	-9989878,0
28,5757084332	-9999766,0
28,5916654752	-10008895,0
28,6076225055	-10015194,0
28,6235785665	-10019210,0
28,6395327009	-10021683,0
28,6554868235	-10023626,0
28,6714399767	-10026286,0
28,6873912036	-10030913,0
28,7033424184	-10037092,0
28,7192926639	-10043938,0
28,7352409833	-10050982,0
28,7511892903	-10058282,0
28,7671366281	-10065574,0
28,7830820399	-10072618,0
28,7990274392	-10079399,0
28,8149718692	-10085995,0
28,8309143734	-10091002,0
28,846856865	-10093331,0
28,8627983873	-10093423,0
28,8787379839	-10092669,0
28,8946775678	-10092490,0
28,9106161823	-10094035,0
28,9265528714	-10097173,0
28,9424895475	-10101011,0
28,9584252543	-10105909,0
28,9743590358	-10111717,0
28,9902928042	-10116840,0
29,0062256032	-10120341,0
29,0221564772	-10122984,0
29,0380873378	-10125787,0
29,0540172292	-10129303,0
29,0699451955	-10133209,0
29,0858731484	-10136773,0
29,101800132	-10139644,0
29,1177251908	-10141934,0
29,133650236	-10143994,0
29,1495743118	-10146566,0
29,1654964631	-10150543,0
29,1814186005	-10156513,0
29,1973397686	-10164500,0
29,2132590123	-10172856,0
29,229178242	-10179163,0
29,2450965023	-10182385,0
29,2610128385	-10182902,0
29,2769291604	-10181585,0
29,292844513	-10179370,0
29,3087579416	-10176989,0
29,3246713558	-10176191,0
29,3405838007	-10177853,0
29,3564943217	-10181781,0
29,3724048281	-10187855,0
29,3883143653	-10195046,0
29,4042219787	-10202158,0
29,4201295774	-10207652,0
29,4360362068	-10211292,0
29,4519409127	-10214065,0
29,4678456037	-10216180,0
29,4837493253	-10217899,0
29,4996511237	-10219586,0
29,5155529069	-10222744,0
29,5314537208	-10227611,0
29,5473526116	-10233459,0
29,563251487	-10239446,0
29,5791493932	-10245030,0
29,5950453764	-10249593,0
29,6109413442	-10253907,0
29,6268363426	-10258539,0
29,6427294182	-10262951,0
29,6586224782	-10266440,0
29,674514569	-10268891,0
29,690404737	-10269742,0
29,7062948893	-10269236,0
29,7221840723	-10268740,0
29,7380713328	-10269341,0
29,7539585773	-10270431,0
29,7698448525	-10271572,0
29,7857292055	-10273512,0
29,8016135422	-10277031,0
29,8174969097	-10282504,0
29,8333783551	-10289738,0
29,8492597841	-10298303,0
29,8651402439	-10306722,0
29,8810187817	-10313272,0
29,896897303	-10317402,0
29,912774855	-10319475,0
29,9286504853	-10319978,0
29,9445260988	-10319377,0
29,9604007431	-10318170,0
29,9762734658	-10316665,0
29,9921461716	-10314840,0
30,0080179082	-10312256,0
30,0238877233	-10308864,0
30,0397575213	-10306262,0
30,0556263502	-10305447,0
30,0714932577	-10306653,0
30,087360148	-10309847,0
30,1032260691	-10315395,0
30,1190900691	-10323651,0
30,1349540517	-10333635,0
30,150817065	-10344005,0
30,1666781574	-10354680,0
30,1825392323	-10366081,0
30,1983993379	-10378372,0
30,2142575227	-10389687,0
30,2301156898	-10398344,0
30,2459728877	-10403229,0
30,261828165	-10405084,0
30,2776834244	-10406265,0
30,2935377145	-10408377,0
30,3093900842	-10411578,0
30,3252424358	-10415175,0
30,3410938182	-10419247,0
30,3569432804	-10423190,0
30,3727927243	-10426891,0
30,3886411989	-10430509,0
30,4044877535	-10433286,0
30,4203342897	-10435228,0
30,4361798566	-10437456,0
30,4520235036	-10440064,0
30,467867132	-10442301,0
30,4837097912	-10444121,0
30,4995505306	-10446806,0
30,5153912513	-10451762,0
30,5312310027	-10459635,0
30,5470688346	-10468609,0
30,5629066476	-10476723,0
30,5787434913	-10482973,0
30,5945784156	-10487566,0
30,6104133208	-10490704,0
30,6262472567	-10492789,0
30,6420792735	-10494943,0
30,657911271	-10497841,0
30,6737422992	-10502411,0
30,6895714084	-10509752,0
30,7054004981	-10517944,0
30,7212286186	-10524906,0
30,7370548202	-10529973,0
30,7528810022	-10532457,0
30,7687062149	-10532675,0
30,784529509	-10531166,0
30,8003527832	-10528104,0
30,8161750882	-10524493,0
30,8319954747	-10521082,0
30,8478158412	-10518936,0
30,8636352385	-10518919,0
30,8794527174	-10521639,0
30,8952701762	-10527158,0
30,9110866657	-10534362,0
30,9269012371	-10540813,0
30,9427157881	-10546458,0
30,9585293699	-10551185,0
30,9743410337	-10554131,0
30,990152677	-10555140,0
31,005963351	-10555828,0
31,0217721072	-10557603,0
31,0375808428	-10559960,0
31,0533886091	-10562966,0
31,0691944578	-10567266,0
31,0850002856	-10572585,0
31,1008051441	-10578822,0
31,1166080852	-10585522,0
31,1324110053	-10592099,0
31,1482129561	-10599319,0
31,1640129897	-10606874,0
31,179813002	-10613304,0
31,1956120451	-10617647,0
31,2114091711	-10619220,0
31,2272062757	-10619001,0
31,243002411	-10618627,0
31,2587966294	-10618677,0
31,2745908263	-10619131,0
31,2903840539	-10619394,0
31,3061753647	-10618983,0
31,3219666538	-10618281,0
31,3377569737	-10617822,0
31,353545377	-10618546,0
31,3693337584	-10621165,0
31,3851211705	-10625725,0
31,4009066662	-10631711,0
31,4166921399	-10638514,0
31,4324766442	-10644853,0
31,4482592324	-10649875,0
31,4640417983	-10653643,0
31,4798233949	-10656524,0
31,4956030755	-10658661,0
31,5113827337	-10660569,0
31,5271614226	-10662415,0
31,5429381956	-10664265,0
31,558714946	-10666691,0
31,5744907272	-10669458,0
31,5902645927	-10672976,0
31,6060384353	-10677302,0
31,6218113088	-10681190,0
31,6375822667	-10683473,0
31,6533532016	-10685110,0
31,6691231673	-10689121,0
31,6848912176	-10697135,0
31,7006592448	-10708050,0
31,7164263028	-10720381,0
31,7321914455	-10732709,0
31,747956565	-10745543,0
31,7637207152	-10760015,0
31,7794829504	-10777692,0
31,7952451621	-10799464,0
31,8110064046	-10824560,0
31,8267657322	-10851783,0
31,8425250362	-10880403,0
31,858283371	-10910741,0
31,874039791	-10943181,0
31,8897961873	-10978757,0
31,9055516143	-11020525,0
31,9213051268	-11071152,0
31,9370586153	-11131508,0
31,9528111345	-11202147,0
31,9685617395	-11282730,0
31,9843123203	-11372178,0
32,0000619318	-11470632,0
32,0158096291	-11580073,0
32,0315573022	-11701967,0
32,0473040059	-11837834,0
32,0630487957	-11988653,0
32,078793561	-12153521,0
32,0945373571	-12332407,0
32,1102792393	-12526144,0
32,1260210969	-12734812,0
32,1417619852	-12957798,0
32,1575009598	-13193877,0
32,1732399097	-13440779,0
32,1889778902	-13697130,0
32,2047139573	-13962212,0
32,2204499994	-14235531,0
32,2361850722	-14516875,0
32,2519182318	-14805755,0
32,2676513661	-15101398,0
32,2833835312	-15402330,0
32,2991137832	-15706778,0
32,3148440098	-16012828,0
32,3305732671	-16317651,0
32,3463006115	-16617684,0
32,3620279304	-16909969,0
32,37775428	-17193407,0
32,3934787168	-17467225,0
32,409203128	-17731020,0
32,4249265698	-17985107,0
32,4406480991	-18229249,0
32,4563696025	-18462014,0
32,4720901366	-18682912,0
32,4878087583	-18893161,0
32,503527354	-19094970,0
32,5192449804	-19289434,0
32,5349606945	-19476511,0
32,5506763824	-19655624,0
32,5663911011	-19827194,0
32,5821039077	-19992215,0
32,5978166878	-20151114,0
32,6135284987	-20303966,0
32,6292383978	-20450538,0
32,6449482702	-20590567,0
32,6606571733	-20724499,0
32,6763641648	-20853104,0
32,6920711295	-20976329,0
32,7077771249	-21094353,0
32,7234812088	-21208261,0
32,7391852658	-21319084,0
32,7548883534	-21427316,0
32,7705895298	-21533059,0
32,786290679	-21635222,0
32,8019908589	-21732766,0
32,8176891277	-21825952,0
32,8333873692	-21915059,0
32,8490846414	-21999255,0
32,8647800026	-22078706,0
32,8804753363	-22154932,0
32,8961697008	-22229279,0
32,9118621544	-22302161,0
32,9275545804	-22373131,0
32,9432460371	-22442065,0
32,9589355832	-22509872,0
32,9746251015	-22577560,0
32,9903136504	-22644848,0
33,006000289	-22711656,0
33,0216868995	-22777302,0
33,0373725407	-22841055,0
33,0530562717	-22902437,0
33,0687399744	-22961405,0
33,0844227079	-23018487,0
33,1001035313	-23073897,0
33,1157843264	-23126919,0
33,1314641521	-23176621,0
33,1471420679	-23222858,0
33,1628199552	-23267007,0
33,1784968733	-23310230,0
33,1941718815	-23352438,0
33,2098468611	-23393390,0
33,2255208714	-23433152,0
33,2411929721	-23471082,0
33,2568650439	-23507004,0
33,2725361464	-23542175,0
33,2882053395	-23577788,0
33,3038745036	-23613273,0
33,3195426984	-23646722,0
33,335208984	-23677624,0
33,3508752403	-23706643,0
33,3665405274	-23734590,0
33,3822039054	-23762228,0
33,397867254	-23789033,0
33,4135296333	-23813458,0
33,4291901038	-23834710,0
33,4448505446	-23852969,0
33,4605100162	-23869356,0
33,4761675791	-23885275,0
33,4918251122	-23901067,0
33,5074816761	-23916379,0
33,5231363314	-23931946,0
33,5387909567	-23948636,0
33,5544446128	-23966725,0
33,5700963606	-23986344,0
33,5857480782	-24007209,0
33,6013988266	-24028539,0
33,6170476668	-24049894,0
33,6326964767	-24070706,0
33,6483443173	-24090523,0
33,6639902499	-24109323,0
33,6796361521	-24127131,0
33,695281085	-24143100,0
33,71092411	-24156788,0
33,7265671044	-24167826,0
33,7422091296	-24175973,0
33,7578492471	-24181702,0
33,7734893338	-24186700,0
33,7891284512	-24191897,0
33,8047656611	-24197888,0
33,82040284	-24205195,0
33,8360390497	-24213165,0
33,8516733521	-24220546,0
33,8673076233	-24226883,0
33,8829409252	-24232209,0
33,89857232	-24236730,0
33,9142036835	-24240924,0
33,9298340777	-24244601,0
33,9454625649	-24247040,0
33,9610910206	-24248153,0
33,9767185071	-24248474,0
33,9923440867	-24248656,0
34,0079696347	-24249513,0
34,0235942134	-24251032,0
34,0392168855	-24253750,0
34,0548395258	-24258098,0
34,0704611967	-24263872,0
34,0860809613	-24270865,0
34,1017006938	-24278341,0
34,117319457	-24285704,0
34,132936314	-24292260,0
34,1485531387	-24297825,0
34,1641689942	-24301972,0
34,1797829436	-24303700,0
34,1953968607	-24303395,0
34,2110098084	-24302120,0
34,2266208503	-24301052,0
34,2422318596	-24300275,0
34,2578418996	-24299695,0
34,2734500338	-24298970,0
34,2890581354	-24298092,0
34,3046652677	-24298148,0
34,3202704944	-24299618,0
34,3358756882	-24302790,0
34,3514799127	-24307620,0
34,3670822319	-24313882,0
34,382684518	-24320848,0
34,3982858348	-24327110,0
34,4138852463	-24331982,0
34,4294846247	-24335388,0
34,4450830337	-24338216,0
34,4606795377	-24341124,0
34,4762760083	-24344404,0
34,4918715097	-24347652,0
34,5074651061	-24350063,0
34,523058669	-24350810,0
34,5386512626	-24349669,0
34,5542419514	-24347630,0
34,5698326065	-24345875,0
34,5854222924	-24345023,0
34,6010100737	-24345435,0
34,6165978211	-24347955,0
34,6321845992	-24352313,0
34,6477694729	-24357829,0
34,6633543126	-24364481,0
34,678938183	-24371628,0
34,6945201491	-24377231,0
34,710102081	-24379746,0
34,7256830437	-24378302,0
34,7412621023	-24373175,0
34,7568411264	-24366098,0
34,7724191813	-24359243,0
34,7879953324	-24354393,0
34,8035714488	-24352205,0
34,819146596	-24351813,0
34,8347198395	-24352750,0
34,8502930481	-24355360,0
34,8658652876	-24359543,0
34,8814356235	-24364597,0
34,8970059244	-24369519,0
34,9125752561	-24373193,0
34,9281426845	-24374923,0
34,9437100777	-24375086,0
34,9592765016	-24375577,0
34,9748410224	-24378188,0
34,9904055078	-24382442,0
35,005969024	-24386517,0
35,0215306373	-24388916,0
35,037092215	-24389451,0
35,0526528235	-24388855,0
35,0682115291	-24387712,0
35,0837701991	-24387010,0
35,0993278998	-24387289,0
35,1148836979	-24388691,0
35,1304394602	-24391338,0
35,1459942532	-24394841,0
35,1615471437	-24398072,0
35,1770999982	-24400205,0
35,1926518834	-24401377,0
35,2082018664	-24402409,0
35,2237518132	-24403776,0
35,2393007907	-24405912,0
35,2548478661	-24409671,0
35,2703949051	-24415085,0
35,2859409749	-24421726,0
35,3014851427	-24428243,0
35,317029274	-24433100,0
35,332572436	-24434596,0
35,3481136963	-24431596,0
35,3636549198	-24423083,0
35,3791951741	-24409621,0
35,3947335268	-24392388,0
35,4102718426	-24371754,0
35,4258091892	-24346822,0
35,4413446343	-24316844,0
35,4568800424	-24281868,0
35,4724144812	-24241587,0
35,4879470188	-24195286,0
35,5034795191	-24142602,0
35,5190110502	-24083014,0
35,5345406802	-24015094,0
35,5500702728	-23936791,0
35,5655988961	-23846138,0
35,5811256186	-23741081,0
35,5966523034	-23619692,0
35,612178019	-23480618,0
35,6277018339	-23322950,0
35,643225611	-23145994,0
35,6587484189	-22948651,0
35,6742693262	-22730803,0
35,6897901956	-22492867,0
35,7053100957	-22235688,0
35,7208280954	-21960384,0
35,7363460571	-21668144,0
35,7518630494	-21359575,0
35,7673781416	-21034634,0
35,7828931955	-20694362,0
35,7984072802	-20340683,0
35,8139194648	-19975886,0
35,8294316109	-19600496,0
35,8449427878	-19214493,0
35,8604520649	-18818390,0
35,8759613033	-18413312,0
35,8914695725	-18001095,0
35,906975942	-17585230,0
35,9224822726	-17169393,0
35,9379876341	-16756331,0
35,953491096	-16347128,0
35,9689945189	-15942526,0
35,9844969726	-15542818,0
35,999997527	-15147226,0
36,0154980422	-14755492,0
36,0309975881	-14369637,0
36,0464952349	-13993408,0
36,0619928424	-13629659,0
36,0774894806	-13279814,0
36,0929842198	-12944879,0
36,1084789195	-12624835,0
36,12397265	-12318724,0
36,1394644816	-12024610,0
36,1549562736	-11740998,0
36,1704470963	-11467654,0
36,1859360205	-11204683,0
36,2014249047	-10952277,0
36,2169128197	-10710248,0
36,2323988362	-10477688,0
36,2478848127	-10252149,0
36,26336982	-10031006,0
36,2788529289	-9812535,0
36,2943359977	-9596868,0
36,3098180972	-9385021,0
36,3252982986	-9178651,0
36,3407784596	-8978198,0
36,3562576514	-8783340,0
36,3717349453	-8592816,0
36,3872121985	-8406742,0
36,4026884826	-8226527,0
36,4181628689	-8053078,0
36,4336372144	-7885412,0
36,4491105907	-7720414,0
36,4645820694	-7556574,0
36,4800535072	-7393115,0
36,4955239758	-7229585,0
36,5109925469	-7065979,0
36,526461077	-6903273,0
36,5419286378	-6743243,0
36,5573943014	-6586408,0
36,5728599237	-6433395,0
36,5883245768	-6283450,0
36,6037873328	-6135200,0
36,6192500474	-5989478,0
36,6347117927	-5847451,0
36,6501716412	-5710043,0
36,665631448	-5577637,0
36,6810902856	-5449769,0
36,6965472265	-5324091,0
36,7120041256	-5198589,0
36,7274600555	-5072522,0
36,7429140888	-4945511,0
36,7583680802	-4818218,0
36,7738211023	-4691579,0
36,789272228	-4565765,0
36,8047233117	-4441571,0
36,820173426	-4320810,0
36,8356216442	-4204757,0
36,8510698201	-4093730,0
36,8665170268	-3987867,0
36,8819623374	-3886325,0
36,8974076055	-3788660,0
36,9128519044	-3695220,0
36,9282943075	-3605664,0
36,9437366679	-3518456,0
36,9591780591	-3431465,0
36,9746175546	-3344067,0
36,9900570073	-3256383,0
37,0054954907	-3168540,0
37,0209320786	-3081349,0
37,0363686235	-2994299,0
37,0518041992	-2905866,0
37,0672378796	-2817610,0
37,0826715168	-2732177,0
37,0981041847	-2649882,0
37,1135349575	-2569218,0
37,128965687	-2489375,0
37,1443954472	-2412245,0
37,1598233124	-2339471,0
37,1752511342	-2270604,0
37,1906779866	-2205022,0
37,2061029443	-2140885,0
37,2215278583	-2075978,0
37,236951803	-2009059,0
37,2523738531	-1941313,0
37,2677958594	-1874731,0
37,2832168963	-1811607,0
37,2986360389	-1752280,0
37,3140551374	-1697498,0
37,3294732666	-1647602,0
37,3448895016	-1601955,0
37,3603056924	-1560220,0
37,3757209139	-1522612,0
37,3911342413	-1488811,0
37,4065475243	-1457494,0
37,4219598381	-1428057,0
37,4373702579	-1400408,0
37,4527806332	-1374357,0
37,4681900392	-1350075,0
37,4835975515	-1326615,0
37,4990050191	-1300449,0
37,5144115174	-1268797,0
37,5298161221	-1232806,0
37,5452206819	-1195449,0
37,5606242724	-1159986,0
37,5760259696	-1129134,0
37,5914276217	-1103990,0
37,6068283045	-1084327,0
37,6222270941	-1068162,0
37,6376258384	-1053868,0
37,6530236134	-1041416,0
37,6684194955	-1031399,0
37,6838153321	-1024057,0
37,6992101994	-1018564,0
37,7146031739	-1014057,0
37,7299961027	-1009115,0
37,7453880623	-1004086,0
37,7607781292	-1000255,0
37,7761681503	-997506,0
37,7915572022	-995709,0
37,8069443615	-994448,0
37,8223314749	-993561,0
37,837717619	-993655,0
37,8531018707	-995844,0
37,8684860764	-1000617,0
37,8838693127	-1006925,0
37,899250657	-1014852,0
37,9146319548	-1024715,0
37,9300122835	-1035383,0
37,9453907201	-1044613,0
37,9607691103	-1052062,0
37,9761465312	-1058928,0
37,9915220602	-1066181,0
38,0068975427	-1074666,0
38,0222720558	-1083979,0
38,0376446773	-1094100,0
38,053017252	-1105543,0
38,0683888574	-1119160,0
38,0837585714	-1136447,0
38,0991282383	-1158376,0
38,114496936	-1185373,0
38,1298637423	-1216082,0
38,1452305015	-1248672,0
38,1605962915	-1280493,0
38,1759601903	-1311777,0
38,1913240418	-1343753,0
38,2066869239	-1377518,0
38,2220479152	-1413702,0
38,2374088589	-1452835,0
38,2527688334	-1495104,0
38,2681269171	-1541068,0
38,283484953	-1589584,0
38,2988420198	-1639496,0
38,3141971959	-1691003,0
38,3295523241	-1744956,0
38,3449064831	-1802023,0
38,3602587517	-1862328,0
38,3756109722	-1925392,0
38,3909622234	-1990247,0
38,4063115844	-2054590,0
38,4216608971	-2116852,0
38,4370092406	-2177600,0
38,4523556941	-2239761,0
38,4677020991	-2306628,0
38,4830475349	-2379059,0
38,4983910807	-2456483,0
38,513734578	-2538929,0
38,529077106	-2626209,0
38,5444177443	-2717032,0
38,5597583339	-2811045,0
38,5750979541	-2907722,0
38,5904356849	-3006670,0
38,6057733667	-3107102,0
38,6211100792	-3208882,0
38,6364449024	-3311812,0
38,6517796765	-3415334,0
38,6671134813	-3520089,0
38,6824453969	-3627051,0
38,6977772632	-3736305,0
38,7131081603	-3847878,0
38,7284371683	-3963226,0
38,7437661269	-4083588,0
38,7590941162	-4210018,0
38,7744202167	-4342675,0
38,7897462675	-4480422,0
38,8050713491	-4622161,0
38,820394542	-4767358,0
38,8357176851	-4915481,0
38,851039859	-5065953,0
38,8663601443	-5217499,0
38,8816803797	-5369339,0
38,8969996458	-5522561,0
38,9123170236	-5678904,0
38,9276343512	-5839352,0
38,9429507096	-6003508,0
38,9582651798	-6170598,0
38,9735795997	-6340242,0
38,9888930503	-6512973,0
39,004204613	-6689967,0
39,0195161251	-6872134,0
39,034826668	-7059329,0
39,0501353231	-7249518,0
39,0654439275	-7441613,0
39,0807515626	-7635464,0
39,0960573102	-7830575,0
39,1113630068	-8026181,0
39,1266677343	-8222937,0
39,1419705742	-8421036,0
39,1572733631	-8620796,0
39,1725751828	-8821782,0
39,1878751152	-9024001,0
39,2031749964	-9227636,0
39,2184739083	-9432760,0
39,2337709332	-9638813,0
39,2490679066	-9844980,0
39,2643639108	-10050877,0
39,2796580281	-10257173,0
39,2949520938	-10464139,0
39,3102451902	-10671129,0
39,3255363999	-10878204,0
39,3408275579	-11084905,0
39,3561177466	-11290432,0
39,3714060488	-11495161,0
39,386694299	-11699627,0
39,40198158	-11903923,0
39,4172669745	-12108145,0
39,432552317	-12313711,0
39,4478366903	-12521207,0
39,4631191773	-12729698,0
39,478401612	-12938522,0
39,4936830775	-13148703,0
39,508962657	-13361597,0
39,524242184	-13577123,0
39,5395207418	-13794369,0
39,5547974136	-14012634,0
39,5700740329	-14232214,0
39,5853496829	-14454191,0
39,6006234472	-14678132,0
39,6158971588	-14901965,0
39,6311699011	-15123207,0
39,6464407578	-15339823,0
39,6617115616	-15551379,0
39,6769813961	-15759316,0
39,6922493453	-15965926,0
39,7075172414	-16171804,0
39,7227841682	-16377381,0
39,7380492098	-16582908,0
39,7533141981	-16787228,0
39,7685782172	-16990035,0
39,7838403512	-17190704,0
39,7991024318	-17388409,0
39,8143635431	-17583054,0
39,8296227696	-17775611,0
39,8448819425	-17967425,0
39,860140146	-18158805,0
39,875396465	-18349698,0
39,8906527301	-18539852,0
39,9059080259	-18728934,0
39,9211614373	-18915711,0
39,9364147946	-19098948,0
39,9516671827	-19279828,0
39,9669176865	-19459799,0
39,9821681362	-19639064,0
39,9974176165	-19817076,0
40,0126652128	-19993744,0
40,0279127546	-20168799,0
40,0431593273	-20341322,0
40,0584040159	-20510194,0
40,0736486501	-20675098,0
40,088892315	-20836323,0
40,1041340961	-20993330,0
40,1193758225	-21146621,0
40,1346165796	-21297298,0
40,1498554532	-21446568,0
40,1650942718	-21594637,0
40,1803321212	-21740851,0
40,1955680872	-21885084,0
40,2108039981	-22027626,0
40,2260389398	-22168890,0
40,2412719982	-22310520,0
40,2565050014	-22452903,0
40,2717370353	-22595244,0
40,2869671862	-22737753,0
40,3021972816	-22880567,0
40,3174264078	-23022764,0
40,3326536511	-23162476,0
40,3478808388	-23298496,0
40,3631070572	-23429905,0
40,3783313929	-23556757,0
40,3935556729	-23679510,0
40,4087789836	-23799199,0
40,4240004118	-23917072,0
40,439221784	-24033808,0
40,454442187	-24149292,0
40,4696607076	-24262733,0
40,4848791721	-24373902,0
40,5000966673	-24483229,0
40,5153122803	-24590932,0
40,5305278371	-24696437,0
40,5457424245	-24799662,0
40,56095513	-24900615,0
40,576167779	-25000021,0
40,5913794588	-25098590,0
40,6065892567	-25196430,0
40,6217989979	-25292915,0
40,6370077699	-25386788,0
40,6522146603	-25477356,0
40,6674214938	-25564586,0
40,6826273581	-25648436,0
40,6978313408	-25729301,0
40,7130352666	-25808198,0
40,7282382232	-25885521,0
40,7434392984	-25961401,0
40,7586403164	-26035389,0
40,7738403652	-26106902,0
40,7890385328	-26176122,0
40,8042366432	-26244146,0
40,8194337842	-26311862,0
40,8346290443	-26379243,0
40,8498242469	-26446194,0
40,8650184802	-26512837,0
40,8802108327	-26579051,0
40,8954031275	-26644708,0
40,9105944531	-26709077,0
40,925783898	-26771216,0
40,9409732851	-26831111,0
40,956161703	-26889431,0
40,9713482403	-26947026,0
40,9865347197	-27004309,0
41,0017202298	-27061740,0
41,0169038596	-27119239,0
41,0320874312	-27176111,0
41,0472700336	-27232597,0
41,0624507558	-27288648,0
41,0776314197	-27343918,0
41,0928111143	-27398151,0
41,107988929	-27450479,0
41,1231666852	-27499762,0
41,138343472	-27546472,0
41,1535183792	-27591542,0
41,1686932276	-27636118,0
41,1838671067	-27681084,0
41,1990391062	-27726923,0
41,2142110469	-27773006,0
41,2293820183	-27817751,0
41,2445511103	-27860093,0
41,2597201432	-27899614,0
41,2748882069	-27937075,0
41,2900543913	-27973365,0
41,3052205165	-28008933,0
41,3203856724	-28043678,0
41,3355489493	-28078542,0
41,3507121667	-28114296,0
41,3658744149	-28150655,0
41,3810347842	-28186673,0
41,3961950939	-28221298,0
41,4113544343	-28254242,0
41,4265118961	-28285816,0
41,441669298	-28316699,0
41,4568257307	-28347128,0
41,4719802849	-28377102,0
41,4871347791	-28406810,0
41,5022883041	-28437304,0
41,5174399507	-28469380,0
41,5325915372	-28502559,0
41,5477421544	-28535817,0
41,5628908934	-28568905,0
41,5780395722	-28600964,0
41,5931872817	-28631569,0
41,6083331131	-28661191,0
41,6234788842	-28690051,0
41,6386236859	-28718470,0
41,6537666098	-28746599,0
41,6689094731	-28774353,0
41,6840513671	-28801304,0
41,6991913834	-28827576,0
41,714331339	-28853695,0
41,7294703252	-28879424,0
41,744607434	-28904130,0
41,7597444818	-28927837,0
41,7748805603	-28951274,0
41,7900147615	-28975086,0
41,8051489016	-28999462,0
41,8202820724	-29023381,0
41,835413366	-29045743,0
41,8505445983	-29066986,0
41,8656748614	-29087811,0
41,8808032475	-29108104,0
41,895931572	-29127288,0
41,9110589273	-29145474,0
41,9261844059	-29163734,0
41,9413098227	-29182933,0
41,9564342703	-29203333,0
41,9715568412	-29224648,0
41,9866793503	-29245923,0
